,0
0,1.6451612903225807
1,1.6387096774193548
2,1.635483870967742
3,1.632258064516129
4,1.6419354838709677
5,1.6451612903225807
6,1.6451612903225807
7,1.6419354838709677
8,1.6387096774193548
9,1.6290322580645162
10,1.6225806451612903
11,1.6193548387096774
12,1.6258064516129032
13,1.632258064516129
14,1.6387096774193548
15,1.6451612903225807
16,1.6483870967741936
17,1.6483870967741936
18,1.6419354838709677
19,1.6387096774193548
20,1.6451612903225807
21,1.6483870967741936
22,1.6516129032258065
23,1.6516129032258065
24,1.6483870967741936
25,1.6419354838709677
26,1.635483870967742
27,1.6258064516129032
28,1.6258064516129032
29,1.635483870967742
30,1.6451612903225807
31,1.6483870967741936
32,1.6483870967741936
33,1.6483870967741936
34,1.6483870967741936
35,1.6451612903225807
36,1.6387096774193548
37,1.6419354838709677
38,1.6483870967741936
39,1.6483870967741936
40,1.6483870967741936
41,1.6419354838709677
42,1.6387096774193548
43,1.632258064516129
44,1.6258064516129032
45,1.6290322580645162
46,1.6387096774193548
47,1.6516129032258065
48,1.6580645161290322
49,1.6612903225806452
50,1.664516129032258
51,1.6612903225806452
52,1.6612903225806452
53,1.6612903225806452
54,1.664516129032258
55,1.6709677419354838
56,1.6709677419354838
57,1.667741935483871
58,1.6612903225806452
59,1.6548387096774193
60,1.6483870967741936
61,1.6451612903225807
62,1.6483870967741936
63,1.6548387096774193
64,1.6612903225806452
65,1.664516129032258
66,1.664516129032258
67,1.6612903225806452
68,1.6548387096774193
69,1.6483870967741936
70,1.6483870967741936
71,1.6516129032258065
72,1.6580645161290322
73,1.6548387096774193
74,1.6483870967741936
75,1.6419354838709677
76,1.632258064516129
77,1.6193548387096774
78,1.6161290322580646
79,1.6258064516129032
80,1.6290322580645162
81,1.6290322580645162
82,1.6290322580645162
83,1.6290322580645162
84,1.6258064516129032
85,1.6193548387096774
86,1.6161290322580646
87,1.6161290322580646
88,1.6225806451612903
89,1.6225806451612903
90,1.6161290322580646
91,1.6096774193548387
92,1.603225806451613
93,1.5935483870967742
94,1.5870967741935484
95,1.5935483870967742
96,1.6
97,1.6096774193548387
98,1.6096774193548387
99,1.6129032258064515
100,1.6161290322580646
101,1.6129032258064515
102,1.6096774193548387
103,1.6096774193548387
104,1.6096774193548387
105,1.6193548387096774
106,1.6225806451612903
107,1.6161290322580646
108,1.6129032258064515
109,1.6064516129032258
110,1.6
111,1.5935483870967742
112,1.6
113,1.6096774193548387
114,1.6129032258064515
115,1.6193548387096774
116,1.6225806451612903
117,1.6193548387096774
118,1.6129032258064515
119,1.6096774193548387
120,1.6129032258064515
121,1.6193548387096774
122,1.6225806451612903
123,1.6225806451612903
124,1.6161290322580646
125,1.6096774193548387
126,1.603225806451613
127,1.596774193548387
128,1.5935483870967742
129,1.6
130,1.6096774193548387
131,1.6129032258064515
132,1.6193548387096774
133,1.6193548387096774
134,1.6161290322580646
135,1.6096774193548387
136,1.6096774193548387
137,1.6129032258064515
138,1.6193548387096774
139,1.6225806451612903
140,1.6193548387096774
141,1.6129032258064515
142,1.6064516129032258
143,1.6
144,1.5935483870967742
145,1.596774193548387
146,1.6064516129032258
147,1.6161290322580646
148,1.6225806451612903
149,1.6225806451612903
150,1.6258064516129032
151,1.6225806451612903
152,1.6129032258064515
153,1.6096774193548387
154,1.6161290322580646
155,1.6193548387096774
156,1.6225806451612903
157,1.6193548387096774
158,1.6129032258064515
159,1.6064516129032258
160,1.6
161,1.5935483870967742
162,1.6
163,1.6096774193548387
164,1.6193548387096774
165,1.6225806451612903
166,1.6225806451612903
167,1.6193548387096774
168,1.6129032258064515
169,1.6064516129032258
170,1.6064516129032258
171,1.6129032258064515
172,1.6161290322580646
173,1.6193548387096774
174,1.6225806451612903
175,1.6258064516129032
176,1.6258064516129032
177,1.6258064516129032
178,1.632258064516129
179,1.6516129032258065
180,1.6741935483870967
181,1.6935483870967742
182,1.7129032258064516
183,1.732258064516129
184,1.7483870967741935
185,1.7580645161290323
186,1.7741935483870968
187,1.793548387096774
188,1.8096774193548386
189,1.8258064516129031
190,1.832258064516129
191,1.8258064516129031
192,1.8096774193548386
193,1.7870967741935484
194,1.767741935483871
195,1.764516129032258
196,1.767741935483871
197,1.767741935483871
198,1.764516129032258
199,1.7580645161290323
200,1.7516129032258065
201,1.7451612903225806
202,1.738709677419355
203,1.735483870967742
204,1.732258064516129
205,1.732258064516129
206,1.7225806451612904
207,1.706451612903226
208,1.6903225806451614
209,1.664516129032258
210,1.6419354838709677
211,1.6161290322580646
212,1.603225806451613
213,1.603225806451613
214,1.596774193548387
215,1.5903225806451613
216,1.5838709677419356
217,1.570967741935484
218,1.5516129032258064
219,1.5258064516129033
220,1.5064516129032257
221,1.5
222,1.4903225806451612
223,1.4870967741935484
224,1.4806451612903226
225,1.4741935483870967
226,1.467741935483871
227,1.4580645161290322
228,1.4580645161290322
229,1.4645161290322581
230,1.4741935483870967
231,1.4838709677419355
232,1.4935483870967743
233,1.4967741935483871
234,1.4967741935483871
235,1.4935483870967743
236,1.4935483870967743
237,1.5
238,1.5096774193548388
239,1.5161290322580645
240,1.5193548387096774
241,1.5225806451612902
242,1.5225806451612902
243,1.5161290322580645
244,1.5129032258064516
245,1.5225806451612902
246,1.5354838709677419
247,1.5483870967741935
248,1.5580645161290323
249,1.5677419354838709
250,1.570967741935484
251,1.570967741935484
252,1.570967741935484
253,1.5741935483870968
254,1.5870967741935484
255,1.5935483870967742
256,1.596774193548387
257,1.596774193548387
258,1.5935483870967742
259,1.5903225806451613
260,1.5870967741935484
261,1.5838709677419356
262,1.5935483870967742
263,1.603225806451613
264,1.6096774193548387
265,1.6161290322580646
266,1.6225806451612903
267,1.6225806451612903
268,1.6225806451612903
269,1.6225806451612903
270,1.6258064516129032
271,1.632258064516129
272,1.6419354838709677
273,1.6387096774193548
274,1.635483870967742
275,1.635483870967742
276,1.6258064516129032
277,1.6193548387096774
278,1.6161290322580646
279,1.6225806451612903
280,1.6290322580645162
281,1.6387096774193548
282,1.6451612903225807
283,1.6483870967741936
284,1.6483870967741936
285,1.6451612903225807
286,1.6451612903225807
287,1.6483870967741936
288,1.6516129032258065
289,1.6548387096774193
290,1.6516129032258065
291,1.6516129032258065
292,1.6483870967741936
293,1.6451612903225807
294,1.6387096774193548
295,1.6387096774193548
296,1.6483870967741936
297,1.6548387096774193
298,1.6612903225806452
299,1.664516129032258
300,1.664516129032258
301,1.6580645161290322
302,1.6548387096774193
303,1.6548387096774193
304,1.6580645161290322
305,1.664516129032258
306,1.664516129032258
307,1.6612903225806452
308,1.6612903225806452
309,1.6548387096774193
310,1.6483870967741936
311,1.6419354838709677
312,1.6451612903225807
313,1.6548387096774193
314,1.664516129032258
315,1.667741935483871
316,1.6709677419354838
317,1.6709677419354838
318,1.667741935483871
319,1.664516129032258
320,1.667741935483871
321,1.6709677419354838
322,1.6741935483870967
323,1.6709677419354838
324,1.667741935483871
325,1.664516129032258
326,1.6548387096774193
327,1.6451612903225807
328,1.6419354838709677
329,1.6516129032258065
330,1.6612903225806452
331,1.6709677419354838
332,1.6741935483870967
333,1.6741935483870967
334,1.6741935483870967
335,1.6709677419354838
336,1.667741935483871
337,1.6709677419354838
338,1.6741935483870967
339,1.6774193548387097
340,1.6774193548387097
341,1.6774193548387097
342,1.6709677419354838
343,1.6612903225806452
344,1.6548387096774193
345,1.6580645161290322
346,1.667741935483871
347,1.6774193548387097
348,1.6806451612903226
349,1.6870967741935483
350,1.6903225806451614
351,1.6870967741935483
352,1.6838709677419355
353,1.6806451612903226
354,1.6870967741935483
355,1.6903225806451614
356,1.6903225806451614
357,1.6838709677419355
358,1.6806451612903226
359,1.6741935483870967
360,1.6709677419354838
361,1.664516129032258
362,1.667741935483871
363,1.6774193548387097
364,1.6870967741935483
365,1.6903225806451614
366,1.6935483870967742
367,1.6935483870967742
368,1.6935483870967742
369,1.6903225806451614
370,1.6903225806451614
371,1.696774193548387
372,1.7
373,1.7
374,1.7
375,1.696774193548387
376,1.6903225806451614
377,1.6838709677419355
378,1.6806451612903226
379,1.6903225806451614
380,1.7
381,1.7096774193548387
382,1.7129032258064516
383,1.7161290322580645
384,1.7129032258064516
385,1.706451612903226
386,1.7032258064516128
387,1.706451612903226
388,1.7129032258064516
389,1.7193548387096773
390,1.7161290322580645
391,1.7129032258064516
392,1.7096774193548387
393,1.7032258064516128
394,1.7
395,1.7
396,1.7096774193548387
397,1.7193548387096773
398,1.729032258064516
399,1.732258064516129
400,1.732258064516129
401,1.729032258064516
402,1.7258064516129032
403,1.7258064516129032
404,1.729032258064516
405,1.735483870967742
406,1.735483870967742
407,1.732258064516129
408,1.729032258064516
409,1.7225806451612904
410,1.7161290322580645
411,1.7096774193548387
412,1.7161290322580645
413,1.7225806451612904
414,1.732258064516129
415,1.732258064516129
416,1.735483870967742
417,1.732258064516129
418,1.729032258064516
419,1.7225806451612904
420,1.7225806451612904
421,1.7225806451612904
422,1.729032258064516
423,1.7225806451612904
424,1.7161290322580645
425,1.7129032258064516
426,1.7032258064516128
427,1.6903225806451614
428,1.6903225806451614
429,1.6935483870967742
430,1.7032258064516128
431,1.706451612903226
432,1.7129032258064516
433,1.7129032258064516
434,1.706451612903226
435,1.7
436,1.696774193548387
437,1.6935483870967742
438,1.6935483870967742
439,1.6935483870967742
440,1.6870967741935483
441,1.6806451612903226
442,1.6709677419354838
443,1.6612903225806452
444,1.6516129032258065
445,1.6483870967741936
446,1.6548387096774193
447,1.6580645161290322
448,1.6612903225806452
449,1.6612903225806452
450,1.6580645161290322
451,1.6516129032258065
452,1.6483870967741936
453,1.6419354838709677
454,1.6419354838709677
455,1.6451612903225807
456,1.6387096774193548
457,1.635483870967742
458,1.6290322580645162
459,1.6161290322580646
460,1.6064516129032258
461,1.5935483870967742
462,1.5935483870967742
463,1.6
464,1.6
465,1.6
466,1.6
467,1.6
468,1.5935483870967742
469,1.5838709677419356
470,1.5806451612903225
471,1.5838709677419356
472,1.5806451612903225
473,1.5741935483870968
474,1.570967741935484
475,1.564516129032258
476,1.5483870967741935
477,1.538709677419355
478,1.5354838709677419
479,1.5419354838709678
480,1.5483870967741935
481,1.5516129032258064
482,1.5548387096774194
483,1.5516129032258064
484,1.5516129032258064
485,1.5419354838709678
486,1.538709677419355
487,1.538709677419355
488,1.5419354838709678
489,1.5419354838709678
490,1.538709677419355
491,1.5354838709677419
492,1.5290322580645161
493,1.5193548387096774
494,1.5096774193548388
495,1.5096774193548388
496,1.5161290322580645
497,1.5225806451612902
498,1.5225806451612902
499,1.5258064516129033
500,1.5290322580645161
501,1.5290322580645161
502,1.5258064516129033
503,1.5225806451612902
504,1.5258064516129033
505,1.532258064516129
506,1.532258064516129
507,1.5290322580645161
508,1.5258064516129033
509,1.5225806451612902
510,1.5129032258064516
511,1.5064516129032257
512,1.5129032258064516
513,1.5225806451612902
514,1.5354838709677419
515,1.538709677419355
516,1.5451612903225806
517,1.5451612903225806
518,1.5419354838709678
519,1.5354838709677419
520,1.5354838709677419
521,1.538709677419355
522,1.5419354838709678
523,1.5419354838709678
524,1.538709677419355
525,1.5354838709677419
526,1.5290322580645161
527,1.5225806451612902
528,1.5193548387096774
529,1.5258064516129033
530,1.5354838709677419
531,1.538709677419355
532,1.5419354838709678
533,1.5451612903225806
534,1.5451612903225806
535,1.538709677419355
536,1.5354838709677419
537,1.538709677419355
538,1.5451612903225806
539,1.5451612903225806
540,1.5451612903225806
541,1.5419354838709678
542,1.5354838709677419
543,1.5290322580645161
544,1.5193548387096774
545,1.5193548387096774
546,1.5258064516129033
547,1.5354838709677419
548,1.5419354838709678
549,1.5451612903225806
550,1.5483870967741935
551,1.5483870967741935
552,1.5451612903225806
553,1.5451612903225806
554,1.5516129032258064
555,1.5580645161290323
556,1.5580645161290323
557,1.5548387096774194
558,1.5516129032258064
559,1.5451612903225806
560,1.538709677419355
561,1.538709677419355
562,1.538709677419355
563,1.5483870967741935
564,1.5580645161290323
565,1.564516129032258
566,1.5677419354838709
567,1.570967741935484
568,1.564516129032258
569,1.5580645161290323
570,1.5580645161290323
571,1.564516129032258
572,1.570967741935484
573,1.5741935483870968
574,1.570967741935484
575,1.570967741935484
576,1.5612903225806452
577,1.5548387096774194
578,1.5548387096774194
579,1.5612903225806452
580,1.570967741935484
581,1.5774193548387097
582,1.5838709677419356
583,1.5870967741935484
584,1.5870967741935484
585,1.5870967741935484
586,1.5838709677419356
587,1.5870967741935484
588,1.5935483870967742
589,1.596774193548387
590,1.6
591,1.596774193548387
592,1.5935483870967742
593,1.5838709677419356
594,1.5774193548387097
595,1.5774193548387097
596,1.5838709677419356
597,1.5935483870967742
598,1.6
599,1.603225806451613
600,1.6064516129032258
601,1.603225806451613
602,1.6
603,1.6
604,1.6
605,1.6064516129032258
606,1.6096774193548387
607,1.6064516129032258
608,1.603225806451613
609,1.596774193548387
610,1.5870967741935484
611,1.5806451612903225
612,1.5870967741935484
613,1.596774193548387
614,1.603225806451613
615,1.6096774193548387
616,1.6129032258064515
617,1.6161290322580646
618,1.6129032258064515
619,1.6096774193548387
620,1.6129032258064515
621,1.6161290322580646
622,1.6225806451612903
623,1.6225806451612903
624,1.6193548387096774
625,1.6161290322580646
626,1.6064516129032258
627,1.6
628,1.5935483870967742
629,1.6
630,1.6096774193548387
631,1.6161290322580646
632,1.6225806451612903
633,1.6258064516129032
634,1.6225806451612903
635,1.6193548387096774
636,1.6129032258064515
637,1.6161290322580646
638,1.6193548387096774
639,1.6193548387096774
640,1.6161290322580646
641,1.6129032258064515
642,1.603225806451613
643,1.596774193548387
644,1.5870967741935484
645,1.5838709677419356
646,1.5935483870967742
647,1.6
648,1.6096774193548387
649,1.6096774193548387
650,1.6096774193548387
651,1.6096774193548387
652,1.603225806451613
653,1.603225806451613
654,1.6064516129032258
655,1.6129032258064515
656,1.6129032258064515
657,1.6096774193548387
658,1.6064516129032258
659,1.6
660,1.5903225806451613
661,1.5870967741935484
662,1.5935483870967742
663,1.603225806451613
664,1.6096774193548387
665,1.6161290322580646
666,1.6193548387096774
667,1.6193548387096774
668,1.6161290322580646
669,1.6096774193548387
670,1.6096774193548387
671,1.6129032258064515
672,1.6193548387096774
673,1.6193548387096774
674,1.6161290322580646
675,1.6129032258064515
676,1.603225806451613
677,1.596774193548387
678,1.5935483870967742
679,1.6
680,1.6096774193548387
681,1.6193548387096774
682,1.6193548387096774
683,1.6225806451612903
684,1.6225806451612903
685,1.6193548387096774
686,1.6193548387096774
687,1.6193548387096774
688,1.6258064516129032
689,1.6258064516129032
690,1.6258064516129032
691,1.6225806451612903
692,1.6193548387096774
693,1.6096774193548387
694,1.6
695,1.6
696,1.6096774193548387
697,1.6161290322580646
698,1.6225806451612903
699,1.6258064516129032
700,1.6290322580645162
701,1.6258064516129032
702,1.6225806451612903
703,1.6193548387096774
704,1.6161290322580646
705,1.6225806451612903
706,1.6258064516129032
707,1.6225806451612903
708,1.6193548387096774
709,1.6129032258064515
710,1.6064516129032258
711,1.596774193548387
712,1.6
713,1.6129032258064515
714,1.6225806451612903
715,1.6290322580645162
716,1.635483870967742
717,1.632258064516129
718,1.6290322580645162
719,1.6258064516129032
720,1.6258064516129032
721,1.6290322580645162
722,1.635483870967742
723,1.635483870967742
724,1.635483870967742
725,1.6290322580645162
726,1.6225806451612903
727,1.6161290322580646
728,1.6129032258064515
729,1.6193548387096774
730,1.632258064516129
731,1.635483870967742
732,1.6387096774193548
733,1.6451612903225807
734,1.6419354838709677
735,1.6387096774193548
736,1.632258064516129
737,1.632258064516129
738,1.635483870967742
739,1.6387096774193548
740,1.6387096774193548
741,1.632258064516129
742,1.6290322580645162
743,1.6193548387096774
744,1.6129032258064515
745,1.6096774193548387
746,1.6193548387096774
747,1.6258064516129032
748,1.6290322580645162
749,1.632258064516129
750,1.632258064516129
751,1.6290322580645162
752,1.6258064516129032
753,1.6258064516129032
754,1.6290322580645162
755,1.635483870967742
756,1.635483870967742
757,1.632258064516129
758,1.6258064516129032
759,1.6193548387096774
760,1.6096774193548387
761,1.603225806451613
762,1.6064516129032258
763,1.6161290322580646
764,1.6258064516129032
765,1.632258064516129
766,1.635483870967742
767,1.635483870967742
768,1.6290322580645162
769,1.6258064516129032
770,1.6258064516129032
771,1.6290322580645162
772,1.632258064516129
773,1.635483870967742
774,1.632258064516129
775,1.6258064516129032
776,1.6161290322580646
777,1.6096774193548387
778,1.6064516129032258
779,1.6129032258064515
780,1.6225806451612903
781,1.6258064516129032
782,1.6290322580645162
783,1.632258064516129
784,1.6290322580645162
785,1.6290322580645162
786,1.6225806451612903
787,1.6225806451612903
788,1.632258064516129
789,1.635483870967742
790,1.635483870967742
791,1.635483870967742
792,1.6290322580645162
793,1.6225806451612903
794,1.6161290322580646
795,1.6129032258064515
796,1.6225806451612903
797,1.635483870967742
798,1.6419354838709677
799,1.6451612903225807
800,1.6451612903225807
801,1.6451612903225807
802,1.6419354838709677
803,1.635483870967742
804,1.6387096774193548
805,1.6451612903225807
806,1.6419354838709677
807,1.6387096774193548
808,1.6387096774193548
809,1.632258064516129
810,1.6258064516129032
811,1.6161290322580646
812,1.6193548387096774
813,1.6290322580645162
814,1.635483870967742
815,1.6387096774193548
816,1.6419354838709677
817,1.6451612903225807
818,1.6419354838709677
819,1.6387096774193548
820,1.635483870967742
821,1.6387096774193548
822,1.6419354838709677
823,1.6451612903225807
824,1.6419354838709677
825,1.6387096774193548
826,1.635483870967742
827,1.6290322580645162
828,1.6258064516129032
829,1.6290322580645162
830,1.6387096774193548
831,1.6483870967741936
832,1.6516129032258065
833,1.6548387096774193
834,1.6548387096774193
835,1.6483870967741936
836,1.6451612903225807
837,1.6419354838709677
838,1.6516129032258065
839,1.6516129032258065
840,1.6483870967741936
841,1.6451612903225807
842,1.6387096774193548
843,1.632258064516129
844,1.6258064516129032
845,1.6258064516129032
846,1.6290322580645162
847,1.635483870967742
848,1.6419354838709677
849,1.6451612903225807
850,1.6483870967741936
851,1.6451612903225807
852,1.6451612903225807
853,1.6419354838709677
854,1.6419354838709677
855,1.6483870967741936
856,1.6516129032258065
857,1.6483870967741936
858,1.6419354838709677
859,1.6387096774193548
860,1.6258064516129032
861,1.6193548387096774
862,1.6193548387096774
863,1.6290322580645162
864,1.6387096774193548
865,1.6419354838709677
866,1.6451612903225807
867,1.6483870967741936
868,1.6451612903225807
869,1.6387096774193548
870,1.6387096774193548
871,1.6419354838709677
872,1.6451612903225807
873,1.6451612903225807
874,1.6419354838709677
875,1.6387096774193548
876,1.632258064516129
877,1.6225806451612903
878,1.6193548387096774
879,1.6258064516129032
880,1.6387096774193548
881,1.6451612903225807
882,1.6483870967741936
883,1.6516129032258065
884,1.6483870967741936
885,1.6451612903225807
886,1.6387096774193548
887,1.6387096774193548
888,1.6419354838709677
889,1.6451612903225807
890,1.6451612903225807
891,1.6451612903225807
892,1.6451612903225807
893,1.635483870967742
894,1.6258064516129032
895,1.6258064516129032
896,1.6290322580645162
897,1.6387096774193548
898,1.6419354838709677
899,1.6483870967741936
900,1.6516129032258065
901,1.6483870967741936
902,1.6451612903225807
903,1.6451612903225807
904,1.6483870967741936
905,1.6516129032258065
906,1.6516129032258065
907,1.6483870967741936
908,1.6451612903225807
909,1.6387096774193548
910,1.632258064516129
911,1.6258064516129032
912,1.6290322580645162
913,1.6387096774193548
914,1.6451612903225807
915,1.6483870967741936
916,1.6516129032258065
917,1.6580645161290322
918,1.6548387096774193
919,1.6548387096774193
920,1.6548387096774193
921,1.6548387096774193
922,1.6580645161290322
923,1.6612903225806452
924,1.6580645161290322
925,1.6548387096774193
926,1.6516129032258065
927,1.6451612903225807
928,1.6387096774193548
929,1.6419354838709677
930,1.6516129032258065
931,1.6612903225806452
932,1.6612903225806452
933,1.664516129032258
934,1.6612903225806452
935,1.6548387096774193
936,1.6516129032258065
937,1.6516129032258065
938,1.6516129032258065
939,1.6516129032258065
940,1.6516129032258065
941,1.6483870967741936
942,1.6451612903225807
943,1.635483870967742
944,1.6258064516129032
945,1.6290322580645162
946,1.6387096774193548
947,1.6451612903225807
948,1.6516129032258065
949,1.6548387096774193
950,1.6612903225806452
951,1.6612903225806452
952,1.6580645161290322
953,1.6516129032258065
954,1.6580645161290322
955,1.667741935483871
956,1.667741935483871
957,1.667741935483871
958,1.664516129032258
959,1.6548387096774193
960,1.6483870967741936
961,1.6419354838709677
962,1.6483870967741936
963,1.6580645161290322
964,1.664516129032258
965,1.667741935483871
966,1.6709677419354838
967,1.6709677419354838
968,1.667741935483871
969,1.664516129032258
970,1.664516129032258
971,1.664516129032258
972,1.6709677419354838
973,1.6741935483870967
974,1.667741935483871
975,1.664516129032258
976,1.6548387096774193
977,1.6483870967741936
978,1.6419354838709677
979,1.6451612903225807
980,1.6516129032258065
981,1.6548387096774193
982,1.6548387096774193
983,1.6580645161290322
984,1.6548387096774193
985,1.6516129032258065
986,1.6419354838709677
987,1.6387096774193548
988,1.6419354838709677
989,1.6419354838709677
990,1.6387096774193548
991,1.635483870967742
992,1.6258064516129032
993,1.6161290322580646
994,1.6064516129032258
995,1.603225806451613
996,1.6096774193548387
997,1.6193548387096774
998,1.6258064516129032
999,1.6290322580645162
1000,1.6290322580645162
1001,1.6258064516129032
1002,1.6258064516129032
1003,1.6225806451612903
1004,1.6258064516129032
1005,1.6258064516129032
1006,1.6290322580645162
1007,1.6258064516129032
1008,1.6225806451612903
1009,1.6161290322580646
1010,1.6096774193548387
1011,1.6
1012,1.6
1013,1.6096774193548387
1014,1.6193548387096774
1015,1.6258064516129032
1016,1.6258064516129032
1017,1.6258064516129032
1018,1.6225806451612903
1019,1.6193548387096774
1020,1.6161290322580646
1021,1.6225806451612903
1022,1.6258064516129032
1023,1.6258064516129032
1024,1.6193548387096774
1025,1.6161290322580646
1026,1.6096774193548387
1027,1.6
1028,1.596774193548387
1029,1.603225806451613
1030,1.6096774193548387
1031,1.6161290322580646
1032,1.6193548387096774
1033,1.6161290322580646
1034,1.6161290322580646
1035,1.6129032258064515
1036,1.6096774193548387
1037,1.6096774193548387
1038,1.6161290322580646
1039,1.6193548387096774
1040,1.6225806451612903
1041,1.6161290322580646
1042,1.6129032258064515
1043,1.6064516129032258
1044,1.6
1045,1.6
1046,1.6064516129032258
1047,1.6193548387096774
1048,1.6258064516129032
1049,1.6258064516129032
1050,1.6290322580645162
1051,1.6258064516129032
1052,1.6193548387096774
1053,1.6129032258064515
1054,1.6161290322580646
1055,1.6225806451612903
1056,1.6258064516129032
1057,1.6225806451612903
1058,1.6225806451612903
1059,1.6129032258064515
1060,1.603225806451613
1061,1.596774193548387
1062,1.596774193548387
1063,1.6064516129032258
1064,1.6161290322580646
1065,1.6225806451612903
1066,1.6225806451612903
1067,1.6258064516129032
1068,1.6225806451612903
1069,1.6161290322580646
1070,1.6129032258064515
1071,1.6193548387096774
1072,1.6225806451612903
1073,1.6225806451612903
1074,1.6161290322580646
1075,1.6096774193548387
1076,1.603225806451613
1077,1.5935483870967742
1078,1.5903225806451613
1079,1.5935483870967742
1080,1.6064516129032258
1081,1.6161290322580646
1082,1.6290322580645162
1083,1.6387096774193548
1084,1.6483870967741936
1085,1.6580645161290322
1086,1.6709677419354838
1087,1.6838709677419355
1088,1.706451612903226
1089,1.732258064516129
1090,1.7516129032258065
1091,1.767741935483871
1092,1.7806451612903227
1093,1.7903225806451613
1094,1.7967741935483872
1095,1.8064516129032258
1096,1.8258064516129031
1097,1.8419354838709678
1098,1.8516129032258064
1099,1.8483870967741935
1100,1.8387096774193548
1101,1.8258064516129031
1102,1.8096774193548386
1103,1.8
1104,1.7967741935483872
1105,1.793548387096774
1106,1.7838709677419355
1107,1.7774193548387096
1108,1.764516129032258
1109,1.7580645161290323
1110,1.7483870967741935
1111,1.735483870967742
1112,1.729032258064516
1113,1.732258064516129
1114,1.729032258064516
1115,1.7225806451612904
1116,1.7129032258064516
1117,1.7
1118,1.6806451612903226
1119,1.6612903225806452
1120,1.6451612903225807
1121,1.635483870967742
1122,1.6258064516129032
1123,1.6193548387096774
1124,1.603225806451613
1125,1.5870967741935484
1126,1.5612903225806452
1127,1.5354838709677419
1128,1.5096774193548388
1129,1.5
1130,1.4967741935483871
1131,1.4935483870967743
1132,1.4903225806451612
1133,1.4903225806451612
1134,1.4838709677419355
1135,1.4806451612903226
1136,1.4709677419354839
1137,1.4741935483870967
1138,1.4838709677419355
1139,1.4870967741935484
1140,1.4903225806451612
1141,1.4903225806451612
1142,1.4935483870967743
1143,1.4870967741935484
1144,1.4870967741935484
1145,1.4903225806451612
1146,1.5032258064516129
1147,1.5193548387096774
1148,1.532258064516129
1149,1.538709677419355
1150,1.5451612903225806
1151,1.5483870967741935
1152,1.5516129032258064
1153,1.5548387096774194
1154,1.5612903225806452
1155,1.5741935483870968
1156,1.5838709677419356
1157,1.5870967741935484
1158,1.5903225806451613
1159,1.5903225806451613
1160,1.5870967741935484
1161,1.5838709677419356
1162,1.5838709677419356
1163,1.5935483870967742
1164,1.603225806451613
1165,1.6096774193548387
1166,1.6129032258064515
1167,1.6161290322580646
1168,1.6193548387096774
1169,1.6161290322580646
1170,1.6193548387096774
1171,1.6290322580645162
1172,1.6387096774193548
1173,1.6419354838709677
1174,1.6387096774193548
1175,1.635483870967742
1176,1.632258064516129
1177,1.6225806451612903
1178,1.6193548387096774
1179,1.6193548387096774
1180,1.6290322580645162
1181,1.6387096774193548
1182,1.6451612903225807
1183,1.6483870967741936
1184,1.6483870967741936
1185,1.6483870967741936
1186,1.6451612903225807
1187,1.6419354838709677
1188,1.6483870967741936
1189,1.6548387096774193
1190,1.6548387096774193
1191,1.6516129032258065
1192,1.6483870967741936
1193,1.6419354838709677
1194,1.635483870967742
1195,1.632258064516129
1196,1.6387096774193548
1197,1.6483870967741936
1198,1.6548387096774193
1199,1.6580645161290322
1200,1.6580645161290322
1201,1.6580645161290322
1202,1.6548387096774193
1203,1.6516129032258065
1204,1.6516129032258065
1205,1.6548387096774193
1206,1.6580645161290322
1207,1.6548387096774193
1208,1.6548387096774193
1209,1.6483870967741936
1210,1.6419354838709677
1211,1.6387096774193548
1212,1.6387096774193548
1213,1.6483870967741936
1214,1.6548387096774193
1215,1.6612903225806452
1216,1.667741935483871
1217,1.667741935483871
1218,1.664516129032258
1219,1.6580645161290322
1220,1.6548387096774193
1221,1.6612903225806452
1222,1.6612903225806452
1223,1.664516129032258
1224,1.6612903225806452
1225,1.6612903225806452
1226,1.6580645161290322
1227,1.6483870967741936
1228,1.6451612903225807
1229,1.6483870967741936
1230,1.6580645161290322
1231,1.667741935483871
1232,1.6741935483870967
1233,1.6741935483870967
1234,1.6741935483870967
1235,1.667741935483871
1236,1.664516129032258
1237,1.664516129032258
1238,1.6709677419354838
1239,1.6741935483870967
1240,1.6741935483870967
1241,1.6709677419354838
1242,1.6709677419354838
1243,1.6612903225806452
1244,1.6516129032258065
1245,1.6516129032258065
1246,1.6580645161290322
1247,1.667741935483871
1248,1.6741935483870967
1249,1.6806451612903226
1250,1.6838709677419355
1251,1.6806451612903226
1252,1.6774193548387097
1253,1.6741935483870967
1254,1.6741935483870967
1255,1.6774193548387097
1256,1.6806451612903226
1257,1.6741935483870967
1258,1.6741935483870967
1259,1.6709677419354838
1260,1.664516129032258
1261,1.6612903225806452
1262,1.6612903225806452
1263,1.6709677419354838
1264,1.6774193548387097
1265,1.6838709677419355
1266,1.6870967741935483
1267,1.6903225806451614
1268,1.6870967741935483
1269,1.6806451612903226
1270,1.6806451612903226
1271,1.6838709677419355
1272,1.6903225806451614
1273,1.6903225806451614
1274,1.6903225806451614
1275,1.6870967741935483
1276,1.6806451612903226
1277,1.6709677419354838
1278,1.664516129032258
1279,1.667741935483871
1280,1.6774193548387097
1281,1.6870967741935483
1282,1.6903225806451614
1283,1.6903225806451614
1284,1.6935483870967742
1285,1.6935483870967742
1286,1.6903225806451614
1287,1.6903225806451614
1288,1.696774193548387
1289,1.7
1290,1.7032258064516128
1291,1.7
1292,1.696774193548387
1293,1.6903225806451614
1294,1.6838709677419355
1295,1.6774193548387097
1296,1.6870967741935483
1297,1.696774193548387
1298,1.706451612903226
1299,1.7129032258064516
1300,1.7193548387096773
1301,1.7161290322580645
1302,1.7129032258064516
1303,1.7129032258064516
1304,1.7129032258064516
1305,1.7225806451612904
1306,1.7225806451612904
1307,1.7225806451612904
1308,1.7193548387096773
1309,1.7129032258064516
1310,1.706451612903226
1311,1.7
1312,1.7
1313,1.7096774193548387
1314,1.7193548387096773
1315,1.7225806451612904
1316,1.7258064516129032
1317,1.729032258064516
1318,1.729032258064516
1319,1.7258064516129032
1320,1.7225806451612904
1321,1.7193548387096773
1322,1.7225806451612904
1323,1.7225806451612904
1324,1.7161290322580645
1325,1.7129032258064516
1326,1.706451612903226
1327,1.696774193548387
1328,1.6903225806451614
1329,1.6903225806451614
1330,1.696774193548387
1331,1.7032258064516128
1332,1.7096774193548387
1333,1.7096774193548387
1334,1.706451612903226
1335,1.706451612903226
1336,1.7
1337,1.7
1338,1.7032258064516128
1339,1.706451612903226
1340,1.706451612903226
1341,1.7
1342,1.6935483870967742
1343,1.6870967741935483
1344,1.6741935483870967
1345,1.667741935483871
1346,1.6741935483870967
1347,1.6806451612903226
1348,1.6870967741935483
1349,1.6870967741935483
1350,1.6870967741935483
1351,1.6806451612903226
1352,1.6774193548387097
1353,1.6709677419354838
1354,1.667741935483871
1355,1.6709677419354838
1356,1.667741935483871
1357,1.6612903225806452
1358,1.6516129032258065
1359,1.6451612903225807
1360,1.635483870967742
1361,1.6225806451612903
1362,1.6193548387096774
1363,1.6258064516129032
1364,1.632258064516129
1365,1.635483870967742
1366,1.6290322580645162
1367,1.6258064516129032
1368,1.6225806451612903
1369,1.6129032258064515
1370,1.6064516129032258
1371,1.6064516129032258
1372,1.6064516129032258
1373,1.603225806451613
1374,1.6
1375,1.5935483870967742
1376,1.5838709677419356
1377,1.570967741935484
1378,1.5612903225806452
1379,1.564516129032258
1380,1.570967741935484
1381,1.5741935483870968
1382,1.5774193548387097
1383,1.5774193548387097
1384,1.5741935483870968
1385,1.5677419354838709
1386,1.5612903225806452
1387,1.5580645161290323
1388,1.5612903225806452
1389,1.564516129032258
1390,1.564516129032258
1391,1.5580645161290323
1392,1.5516129032258064
1393,1.5419354838709678
1394,1.532258064516129
1395,1.5258064516129033
1396,1.532258064516129
1397,1.538709677419355
1398,1.5451612903225806
1399,1.5451612903225806
1400,1.5483870967741935
1401,1.5483870967741935
1402,1.5451612903225806
1403,1.5419354838709678
1404,1.538709677419355
1405,1.5451612903225806
1406,1.5483870967741935
1407,1.5451612903225806
1408,1.5419354838709678
1409,1.532258064516129
1410,1.5258064516129033
1411,1.5193548387096774
1412,1.5161290322580645
1413,1.5225806451612902
1414,1.5354838709677419
1415,1.5419354838709678
1416,1.5451612903225806
1417,1.5483870967741935
1418,1.5483870967741935
1419,1.5419354838709678
1420,1.538709677419355
1421,1.5419354838709678
1422,1.5483870967741935
1423,1.5483870967741935
1424,1.5483870967741935
1425,1.5451612903225806
1426,1.538709677419355
1427,1.532258064516129
1428,1.5258064516129033
1429,1.5290322580645161
1430,1.5419354838709678
1431,1.5483870967741935
1432,1.5516129032258064
1433,1.5580645161290323
1434,1.5580645161290323
1435,1.5580645161290323
1436,1.5548387096774194
1437,1.5516129032258064
1438,1.5580645161290323
1439,1.5612903225806452
1440,1.564516129032258
1441,1.5580645161290323
1442,1.5548387096774194
1443,1.5516129032258064
1444,1.5451612903225806
1445,1.538709677419355
1446,1.5419354838709678
1447,1.5516129032258064
1448,1.5612903225806452
1449,1.564516129032258
1450,1.5677419354838709
1451,1.5677419354838709
1452,1.5612903225806452
1453,1.5612903225806452
1454,1.564516129032258
1455,1.570967741935484
1456,1.5741935483870968
1457,1.5741935483870968
1458,1.570967741935484
1459,1.5677419354838709
1460,1.5580645161290323
1461,1.5516129032258064
1462,1.5483870967741935
1463,1.5580645161290323
1464,1.5677419354838709
1465,1.5741935483870968
1466,1.5774193548387097
1467,1.5774193548387097
1468,1.5774193548387097
1469,1.570967741935484
1470,1.570967741935484
1471,1.5741935483870968
1472,1.5774193548387097
1473,1.5838709677419356
1474,1.5774193548387097
1475,1.5741935483870968
1476,1.5677419354838709
1477,1.5612903225806452
1478,1.5580645161290323
1479,1.5580645161290323
1480,1.570967741935484
1481,1.5806451612903225
1482,1.5838709677419356
1483,1.5870967741935484
1484,1.5870967741935484
1485,1.5838709677419356
1486,1.5806451612903225
1487,1.5774193548387097
1488,1.5838709677419356
1489,1.5870967741935484
1490,1.5903225806451613
1491,1.5870967741935484
1492,1.5870967741935484
1493,1.5806451612903225
1494,1.570967741935484
1495,1.5677419354838709
1496,1.5741935483870968
1497,1.5870967741935484
1498,1.5935483870967742
1499,1.596774193548387
1500,1.6
1501,1.596774193548387
1502,1.5935483870967742
1503,1.5935483870967742
1504,1.5903225806451613
1505,1.596774193548387
1506,1.6
1507,1.6
1508,1.6
1509,1.596774193548387
1510,1.5870967741935484
1511,1.5774193548387097
1512,1.5774193548387097
1513,1.5870967741935484
1514,1.596774193548387
1515,1.603225806451613
1516,1.6064516129032258
1517,1.6096774193548387
1518,1.6096774193548387
1519,1.6064516129032258
1520,1.6064516129032258
1521,1.6096774193548387
1522,1.6129032258064515
1523,1.6193548387096774
1524,1.6161290322580646
1525,1.6129032258064515
1526,1.6096774193548387
1527,1.6
1528,1.5903225806451613
1529,1.5903225806451613
1530,1.6
1531,1.6096774193548387
1532,1.6161290322580646
1533,1.6161290322580646
1534,1.6193548387096774
1535,1.6161290322580646
1536,1.6129032258064515
1537,1.6096774193548387
1538,1.6129032258064515
1539,1.6161290322580646
1540,1.6193548387096774
1541,1.6161290322580646
1542,1.6129032258064515
1543,1.6096774193548387
1544,1.603225806451613
1545,1.596774193548387
1546,1.6
1547,1.6096774193548387
1548,1.6225806451612903
1549,1.6258064516129032
1550,1.6290322580645162
1551,1.6290322580645162
1552,1.6225806451612903
1553,1.6193548387096774
1554,1.6161290322580646
1555,1.6225806451612903
1556,1.6258064516129032
1557,1.6258064516129032
1558,1.6225806451612903
1559,1.6193548387096774
1560,1.6096774193548387
1561,1.6
1562,1.596774193548387
1563,1.6096774193548387
1564,1.6193548387096774
1565,1.6258064516129032
1566,1.6290322580645162
1567,1.632258064516129
1568,1.632258064516129
1569,1.6290322580645162
1570,1.6258064516129032
1571,1.632258064516129
1572,1.635483870967742
1573,1.6387096774193548
1574,1.632258064516129
1575,1.6258064516129032
1576,1.6225806451612903
1577,1.6096774193548387
1578,1.6064516129032258
1579,1.6064516129032258
1580,1.6161290322580646
1581,1.6258064516129032
1582,1.632258064516129
1583,1.635483870967742
1584,1.635483870967742
1585,1.635483870967742
1586,1.6290322580645162
1587,1.6258064516129032
1588,1.6290322580645162
1589,1.635483870967742
1590,1.635483870967742
1591,1.6290322580645162
1592,1.6258064516129032
1593,1.6193548387096774
1594,1.6096774193548387
1595,1.603225806451613
1596,1.6129032258064515
1597,1.6225806451612903
1598,1.6290322580645162
1599,1.635483870967742
1600,1.6387096774193548
1601,1.635483870967742
1602,1.6290322580645162
1603,1.6258064516129032
1604,1.6258064516129032
1605,1.632258064516129
1606,1.635483870967742
1607,1.632258064516129
1608,1.6290322580645162
1609,1.6225806451612903
1610,1.6161290322580646
1611,1.6096774193548387
1612,1.6064516129032258
1613,1.6129032258064515
1614,1.6258064516129032
1615,1.6290322580645162
1616,1.632258064516129
1617,1.632258064516129
1618,1.6290322580645162
1619,1.6225806451612903
1620,1.6193548387096774
1621,1.6193548387096774
1622,1.6258064516129032
1623,1.6258064516129032
1624,1.6225806451612903
1625,1.6193548387096774
1626,1.6161290322580646
1627,1.6096774193548387
1628,1.603225806451613
1629,1.603225806451613
1630,1.6129032258064515
1631,1.6225806451612903
1632,1.6258064516129032
1633,1.632258064516129
1634,1.635483870967742
1635,1.632258064516129
1636,1.6258064516129032
1637,1.6258064516129032
1638,1.6290322580645162
1639,1.632258064516129
1640,1.632258064516129
1641,1.6290322580645162
1642,1.6258064516129032
1643,1.6193548387096774
1644,1.6096774193548387
1645,1.603225806451613
1646,1.6064516129032258
1647,1.6161290322580646
1648,1.6258064516129032
1649,1.6258064516129032
1650,1.632258064516129
1651,1.6290322580645162
1652,1.6258064516129032
1653,1.6193548387096774
1654,1.6225806451612903
1655,1.6290322580645162
1656,1.635483870967742
1657,1.632258064516129
1658,1.6290322580645162
1659,1.6258064516129032
1660,1.6193548387096774
1661,1.6096774193548387
1662,1.6064516129032258
1663,1.6161290322580646
1664,1.6258064516129032
1665,1.632258064516129
1666,1.635483870967742
1667,1.632258064516129
1668,1.6290322580645162
1669,1.6258064516129032
1670,1.6225806451612903
1671,1.6258064516129032
1672,1.632258064516129
1673,1.635483870967742
1674,1.6290322580645162
1675,1.6290322580645162
1676,1.6225806451612903
1677,1.6129032258064515
1678,1.6064516129032258
1679,1.6064516129032258
1680,1.6193548387096774
1681,1.6258064516129032
1682,1.6290322580645162
1683,1.635483870967742
1684,1.635483870967742
1685,1.635483870967742
1686,1.6290322580645162
1687,1.6258064516129032
1688,1.632258064516129
1689,1.6387096774193548
1690,1.6387096774193548
1691,1.635483870967742
1692,1.6290322580645162
1693,1.6225806451612903
1694,1.6129032258064515
1695,1.6064516129032258
1696,1.6129032258064515
1697,1.6225806451612903
1698,1.6290322580645162
1699,1.6290322580645162
1700,1.635483870967742
1701,1.635483870967742
1702,1.632258064516129
1703,1.6290322580645162
1704,1.6258064516129032
1705,1.635483870967742
1706,1.6387096774193548
1707,1.6387096774193548
1708,1.635483870967742
1709,1.6290322580645162
1710,1.6225806451612903
1711,1.6129032258064515
1712,1.6129032258064515
1713,1.6193548387096774
1714,1.6258064516129032
1715,1.635483870967742
1716,1.6387096774193548
1717,1.6419354838709677
1718,1.6451612903225807
1719,1.6387096774193548
1720,1.6387096774193548
1721,1.6387096774193548
1722,1.6451612903225807
1723,1.6451612903225807
1724,1.6451612903225807
1725,1.6419354838709677
1726,1.635483870967742
1727,1.6258064516129032
1728,1.6129032258064515
1729,1.6129032258064515
1730,1.6258064516129032
1731,1.635483870967742
1732,1.6419354838709677
1733,1.6451612903225807
1734,1.6451612903225807
1735,1.6387096774193548
1736,1.632258064516129
1737,1.6290322580645162
1738,1.635483870967742
1739,1.6387096774193548
1740,1.6419354838709677
1741,1.6387096774193548
1742,1.632258064516129
1743,1.6258064516129032
1744,1.6161290322580646
1745,1.6096774193548387
1746,1.6129032258064515
1747,1.6258064516129032
1748,1.632258064516129
1749,1.635483870967742
1750,1.6387096774193548
1751,1.635483870967742
1752,1.632258064516129
1753,1.6290322580645162
1754,1.6258064516129032
1755,1.632258064516129
1756,1.635483870967742
1757,1.635483870967742
1758,1.635483870967742
1759,1.632258064516129
1760,1.6258064516129032
1761,1.6193548387096774
1762,1.6161290322580646
1763,1.6225806451612903
1764,1.632258064516129
1765,1.6387096774193548
1766,1.6419354838709677
1767,1.6451612903225807
1768,1.6419354838709677
1769,1.635483870967742
1770,1.632258064516129
1771,1.6387096774193548
1772,1.6451612903225807
1773,1.6483870967741936
1774,1.6451612903225807
1775,1.6419354838709677
1776,1.635483870967742
1777,1.6258064516129032
1778,1.6161290322580646
1779,1.6161290322580646
1780,1.6258064516129032
1781,1.632258064516129
1782,1.6387096774193548
1783,1.6419354838709677
1784,1.6419354838709677
1785,1.6387096774193548
1786,1.635483870967742
1787,1.635483870967742
1788,1.6387096774193548
1789,1.6451612903225807
1790,1.6419354838709677
1791,1.6387096774193548
1792,1.635483870967742
1793,1.6290322580645162
1794,1.6193548387096774
1795,1.6096774193548387
1796,1.6161290322580646
1797,1.6258064516129032
1798,1.632258064516129
1799,1.6387096774193548
1800,1.6387096774193548
1801,1.6387096774193548
1802,1.6387096774193548
1803,1.632258064516129
1804,1.632258064516129
1805,1.6387096774193548
1806,1.6419354838709677
1807,1.6419354838709677
1808,1.6419354838709677
1809,1.6387096774193548
1810,1.6290322580645162
1811,1.6193548387096774
1812,1.6129032258064515
1813,1.6193548387096774
1814,1.6290322580645162
1815,1.635483870967742
1816,1.6387096774193548
1817,1.6387096774193548
1818,1.6387096774193548
1819,1.632258064516129
1820,1.632258064516129
1821,1.635483870967742
1822,1.6387096774193548
1823,1.6419354838709677
1824,1.6419354838709677
1825,1.6419354838709677
1826,1.635483870967742
1827,1.6258064516129032
1828,1.6193548387096774
1829,1.6193548387096774
1830,1.6258064516129032
1831,1.6387096774193548
1832,1.6419354838709677
1833,1.6451612903225807
1834,1.6451612903225807
1835,1.6451612903225807
1836,1.635483870967742
1837,1.635483870967742
1838,1.6387096774193548
1839,1.6451612903225807
1840,1.6483870967741936
1841,1.6419354838709677
1842,1.6387096774193548
1843,1.632258064516129
1844,1.6225806451612903
1845,1.6193548387096774
1846,1.6193548387096774
1847,1.6290322580645162
1848,1.6387096774193548
1849,1.6419354838709677
1850,1.6451612903225807
1851,1.6419354838709677
1852,1.6387096774193548
1853,1.635483870967742
1854,1.635483870967742
1855,1.6419354838709677
1856,1.6451612903225807
1857,1.6451612903225807
1858,1.6387096774193548
1859,1.635483870967742
1860,1.6290322580645162
1861,1.6161290322580646
1862,1.6096774193548387
1863,1.6193548387096774
1864,1.6290322580645162
1865,1.6387096774193548
1866,1.6387096774193548
1867,1.6419354838709677
1868,1.6387096774193548
1869,1.635483870967742
1870,1.635483870967742
1871,1.6387096774193548
1872,1.6419354838709677
1873,1.6419354838709677
1874,1.6419354838709677
1875,1.6387096774193548
1876,1.632258064516129
1877,1.6258064516129032
1878,1.6161290322580646
1879,1.6161290322580646
1880,1.6258064516129032
1881,1.635483870967742
1882,1.6419354838709677
1883,1.6451612903225807
1884,1.6451612903225807
1885,1.6419354838709677
1886,1.6387096774193548
1887,1.6387096774193548
1888,1.6387096774193548
1889,1.6419354838709677
1890,1.6483870967741936
1891,1.6451612903225807
1892,1.6451612903225807
1893,1.635483870967742
1894,1.6258064516129032
1895,1.6225806451612903
1896,1.6258064516129032
1897,1.632258064516129
1898,1.6387096774193548
1899,1.6419354838709677
1900,1.6419354838709677
1901,1.6451612903225807
1902,1.6419354838709677
1903,1.6387096774193548
1904,1.635483870967742
1905,1.6387096774193548
1906,1.6387096774193548
1907,1.6387096774193548
1908,1.635483870967742
1909,1.6290322580645162
1910,1.6225806451612903
1911,1.6161290322580646
1912,1.6129032258064515
1913,1.6225806451612903
1914,1.632258064516129
1915,1.6451612903225807
1916,1.6483870967741936
1917,1.6516129032258065
1918,1.6548387096774193
1919,1.6483870967741936
1920,1.6516129032258065
1921,1.6548387096774193
1922,1.664516129032258
1923,1.667741935483871
1924,1.667741935483871
1925,1.664516129032258
1926,1.6612903225806452
1927,1.6516129032258065
1928,1.6451612903225807
1929,1.6419354838709677
1930,1.6516129032258065
1931,1.6580645161290322
1932,1.664516129032258
1933,1.664516129032258
1934,1.667741935483871
1935,1.664516129032258
1936,1.664516129032258
1937,1.6612903225806452
1938,1.664516129032258
1939,1.667741935483871
1940,1.667741935483871
1941,1.664516129032258
1942,1.6580645161290322
1943,1.6483870967741936
1944,1.6419354838709677
1945,1.632258064516129
1946,1.632258064516129
1947,1.6387096774193548
1948,1.6419354838709677
1949,1.6419354838709677
1950,1.6451612903225807
1951,1.6387096774193548
1952,1.632258064516129
1953,1.6258064516129032
1954,1.6225806451612903
1955,1.6258064516129032
1956,1.6290322580645162
1957,1.6290322580645162
1958,1.6258064516129032
1959,1.6193548387096774
1960,1.6096774193548387
1961,1.596774193548387
1962,1.5935483870967742
1963,1.596774193548387
1964,1.6
1965,1.6096774193548387
1966,1.6129032258064515
1967,1.6161290322580646
1968,1.6129032258064515
1969,1.6096774193548387
1970,1.6064516129032258
1971,1.6096774193548387
1972,1.6193548387096774
1973,1.6225806451612903
1974,1.6193548387096774
1975,1.6161290322580646
1976,1.6129032258064515
1977,1.603225806451613
1978,1.596774193548387
1979,1.596774193548387
1980,1.6064516129032258
1981,1.6129032258064515
1982,1.6161290322580646
1983,1.6225806451612903
1984,1.6225806451612903
1985,1.6193548387096774
1986,1.6161290322580646
1987,1.6161290322580646
1988,1.6129032258064515
1989,1.6193548387096774
1990,1.6193548387096774
1991,1.6161290322580646
1992,1.6129032258064515
1993,1.6096774193548387
1994,1.6
1995,1.5935483870967742
1996,1.596774193548387
1997,1.6064516129032258
1998,1.6129032258064515
1999,1.6161290322580646
2000,1.6193548387096774
2001,1.6225806451612903
2002,1.6193548387096774
2003,1.6129032258064515
2004,1.6096774193548387
2005,1.6161290322580646
2006,1.6225806451612903
2007,1.6225806451612903
2008,1.6193548387096774
2009,1.6129032258064515
2010,1.6064516129032258
2011,1.6
2012,1.5935483870967742
2013,1.6
2014,1.6096774193548387
2015,1.6225806451612903
2016,1.6258064516129032
2017,1.6290322580645162
2018,1.6290322580645162
2019,1.6258064516129032
2020,1.6193548387096774
2021,1.6161290322580646
2022,1.6225806451612903
2023,1.6290322580645162
2024,1.6258064516129032
2025,1.6258064516129032
2026,1.6225806451612903
2027,1.6096774193548387
2028,1.603225806451613
2029,1.6
2030,1.6064516129032258
2031,1.6161290322580646
2032,1.6258064516129032
2033,1.6258064516129032
2034,1.6290322580645162
2035,1.6258064516129032
2036,1.6225806451612903
2037,1.6193548387096774
2038,1.6225806451612903
2039,1.6225806451612903
2040,1.6258064516129032
2041,1.6193548387096774
2042,1.6161290322580646
2043,1.6096774193548387
2044,1.603225806451613
2045,1.6
2046,1.6064516129032258
2047,1.6225806451612903
2048,1.6387096774193548
2049,1.6548387096774193
2050,1.6709677419354838
2051,1.6870967741935483
2052,1.696774193548387
2053,1.7129032258064516
2054,1.729032258064516
2055,1.7516129032258065
2056,1.7741935483870968
2057,1.7903225806451613
2058,1.803225806451613
2059,1.8129032258064517
2060,1.8161290322580645
2061,1.8161290322580645
2062,1.8161290322580645
2063,1.8258064516129031
2064,1.832258064516129
2065,1.8290322580645162
2066,1.8258064516129031
2067,1.8193548387096774
2068,1.8129032258064517
2069,1.8
2070,1.7870967741935484
2071,1.7806451612903227
2072,1.7806451612903227
2073,1.7774193548387096
2074,1.770967741935484
2075,1.764516129032258
2076,1.7516129032258065
2077,1.7419354838709677
2078,1.7258064516129032
2079,1.7161290322580645
2080,1.7129032258064516
2081,1.7032258064516128
2082,1.7
2083,1.6870967741935483
2084,1.6709677419354838
2085,1.6516129032258065
2086,1.635483870967742
2087,1.6193548387096774
2088,1.6129032258064515
2089,1.6064516129032258
2090,1.596774193548387
2091,1.5741935483870968
2092,1.5483870967741935
2093,1.5258064516129033
2094,1.5064516129032257
2095,1.4870967741935484
2096,1.4806451612903226
2097,1.4806451612903226
2098,1.4870967741935484
2099,1.4903225806451612
2100,1.4935483870967743
2101,1.4935483870967743
2102,1.4903225806451612
2103,1.4903225806451612
2104,1.4903225806451612
2105,1.5
2106,1.5064516129032257
2107,1.5096774193548388
2108,1.5064516129032257
2109,1.5096774193548388
2110,1.5064516129032257
2111,1.5
2112,1.5032258064516129
2113,1.5129032258064516
2114,1.532258064516129
2115,1.5451612903225806
2116,1.5516129032258064
2117,1.5580645161290323
2118,1.564516129032258
2119,1.5677419354838709
2120,1.5677419354838709
2121,1.570967741935484
2122,1.5806451612903225
2123,1.5870967741935484
2124,1.5870967741935484
2125,1.5870967741935484
2126,1.5838709677419356
2127,1.5806451612903225
2128,1.5774193548387097
2129,1.5806451612903225
2130,1.5903225806451613
2131,1.603225806451613
2132,1.6096774193548387
2133,1.6193548387096774
2134,1.6225806451612903
2135,1.6225806451612903
2136,1.6193548387096774
2137,1.6161290322580646
2138,1.6225806451612903
2139,1.6290322580645162
2140,1.635483870967742
2141,1.635483870967742
2142,1.632258064516129
2143,1.6258064516129032
2144,1.6193548387096774
2145,1.6129032258064515
2146,1.6161290322580646
2147,1.6258064516129032
2148,1.632258064516129
2149,1.6387096774193548
2150,1.6387096774193548
2151,1.6419354838709677
2152,1.6419354838709677
2153,1.6419354838709677
2154,1.6387096774193548
2155,1.6451612903225807
2156,1.6483870967741936
2157,1.6483870967741936
2158,1.6451612903225807
2159,1.6419354838709677
2160,1.6387096774193548
2161,1.6290322580645162
2162,1.6258064516129032
2163,1.6290322580645162
2164,1.6387096774193548
2165,1.6483870967741936
2166,1.6548387096774193
2167,1.6580645161290322
2168,1.6548387096774193
2169,1.6516129032258065
2170,1.6451612903225807
2171,1.6451612903225807
2172,1.6516129032258065
2173,1.6548387096774193
2174,1.6548387096774193
2175,1.6548387096774193
2176,1.6516129032258065
2177,1.6483870967741936
2178,1.6387096774193548
2179,1.635483870967742
2180,1.6451612903225807
2181,1.6516129032258065
2182,1.664516129032258
2183,1.6709677419354838
2184,1.6709677419354838
2185,1.6709677419354838
2186,1.664516129032258
2187,1.6612903225806452
2188,1.6612903225806452
2189,1.667741935483871
2190,1.6709677419354838
2191,1.6709677419354838
2192,1.667741935483871
2193,1.6612903225806452
2194,1.6516129032258065
2195,1.6451612903225807
2196,1.6451612903225807
2197,1.6548387096774193
2198,1.664516129032258
2199,1.667741935483871
2200,1.6709677419354838
2201,1.6709677419354838
2202,1.6709677419354838
2203,1.6612903225806452
2204,1.6580645161290322
2205,1.6612903225806452
2206,1.6612903225806452
2207,1.664516129032258
2208,1.6612903225806452
2209,1.6580645161290322
2210,1.6516129032258065
2211,1.6451612903225807
2212,1.6387096774193548
2213,1.6451612903225807
2214,1.6548387096774193
2215,1.6612903225806452
2216,1.664516129032258
2217,1.6709677419354838
2218,1.6709677419354838
2219,1.664516129032258
2220,1.6612903225806452
2221,1.664516129032258
2222,1.6709677419354838
2223,1.6741935483870967
2224,1.6709677419354838
2225,1.667741935483871
2226,1.664516129032258
2227,1.6580645161290322
2228,1.6516129032258065
2229,1.6516129032258065
2230,1.6612903225806452
2231,1.6709677419354838
2232,1.6741935483870967
2233,1.6806451612903226
2234,1.6870967741935483
2235,1.6838709677419355
2236,1.6741935483870967
2237,1.6741935483870967
2238,1.6774193548387097
2239,1.6806451612903226
2240,1.6870967741935483
2241,1.6838709677419355
2242,1.6838709677419355
2243,1.6806451612903226
2244,1.6709677419354838
2245,1.664516129032258
2246,1.667741935483871
2247,1.6741935483870967
2248,1.6870967741935483
2249,1.6935483870967742
2250,1.7
2251,1.696774193548387
2252,1.696774193548387
2253,1.6903225806451614
2254,1.6903225806451614
2255,1.696774193548387
2256,1.7
2257,1.7
2258,1.7
2259,1.696774193548387
2260,1.6870967741935483
2261,1.6806451612903226
2262,1.6741935483870967
2263,1.6838709677419355
2264,1.696774193548387
2265,1.706451612903226
2266,1.7129032258064516
2267,1.7193548387096773
2268,1.7193548387096773
2269,1.7129032258064516
2270,1.7096774193548387
2271,1.7096774193548387
2272,1.7161290322580645
2273,1.7193548387096773
2274,1.7225806451612904
2275,1.7193548387096773
2276,1.7129032258064516
2277,1.706451612903226
2278,1.696774193548387
2279,1.6935483870967742
2280,1.7
2281,1.7129032258064516
2282,1.7193548387096773
2283,1.7225806451612904
2284,1.7258064516129032
2285,1.7258064516129032
2286,1.7193548387096773
2287,1.7161290322580645
2288,1.7161290322580645
2289,1.7193548387096773
2290,1.7225806451612904
2291,1.7193548387096773
2292,1.7129032258064516
2293,1.706451612903226
2294,1.7
2295,1.6935483870967742
2296,1.6935483870967742
2297,1.7
2298,1.7129032258064516
2299,1.7129032258064516
2300,1.7161290322580645
2301,1.7161290322580645
2302,1.7129032258064516
2303,1.7096774193548387
2304,1.706451612903226
2305,1.706451612903226
2306,1.706451612903226
2307,1.706451612903226
2308,1.7032258064516128
2309,1.6935483870967742
2310,1.6870967741935483
2311,1.6741935483870967
2312,1.667741935483871
2313,1.6709677419354838
2314,1.6741935483870967
2315,1.6806451612903226
2316,1.6806451612903226
2317,1.6806451612903226
2318,1.6774193548387097
2319,1.6709677419354838
2320,1.664516129032258
2321,1.6580645161290322
2322,1.6612903225806452
2323,1.664516129032258
2324,1.6580645161290322
2325,1.6516129032258065
2326,1.6451612903225807
2327,1.635483870967742
2328,1.6258064516129032
2329,1.6193548387096774
2330,1.6225806451612903
2331,1.6258064516129032
2332,1.6290322580645162
2333,1.632258064516129
2334,1.632258064516129
2335,1.6290322580645162
2336,1.6193548387096774
2337,1.6129032258064515
2338,1.6096774193548387
2339,1.6129032258064515
2340,1.6129032258064515
2341,1.6096774193548387
2342,1.603225806451613
2343,1.5935483870967742
2344,1.5838709677419356
2345,1.570967741935484
2346,1.570967741935484
2347,1.5741935483870968
2348,1.5838709677419356
2349,1.5806451612903225
2350,1.5806451612903225
2351,1.5774193548387097
2352,1.570967741935484
2353,1.5677419354838709
2354,1.564516129032258
2355,1.5677419354838709
2356,1.5677419354838709
2357,1.5677419354838709
2358,1.5612903225806452
2359,1.5548387096774194
2360,1.5483870967741935
2361,1.5419354838709678
2362,1.5354838709677419
2363,1.5354838709677419
2364,1.5451612903225806
2365,1.5483870967741935
2366,1.5516129032258064
2367,1.5548387096774194
2368,1.5516129032258064
2369,1.5483870967741935
2370,1.5419354838709678
2371,1.538709677419355
2372,1.5451612903225806
2373,1.5483870967741935
2374,1.5483870967741935
2375,1.5483870967741935
2376,1.5451612903225806
2377,1.5354838709677419
2378,1.5290322580645161
2379,1.5225806451612902
2380,1.5290322580645161
2381,1.538709677419355
2382,1.5483870967741935
2383,1.5516129032258064
2384,1.5580645161290323
2385,1.5548387096774194
2386,1.5483870967741935
2387,1.5483870967741935
2388,1.5516129032258064
2389,1.5548387096774194
2390,1.5580645161290323
2391,1.5548387096774194
2392,1.5516129032258064
2393,1.5451612903225806
2394,1.538709677419355
2395,1.5290322580645161
2396,1.5258064516129033
2397,1.5354838709677419
2398,1.5451612903225806
2399,1.5483870967741935
2400,1.5580645161290323
2401,1.5580645161290323
2402,1.5548387096774194
2403,1.5516129032258064
2404,1.5516129032258064
2405,1.5548387096774194
2406,1.5580645161290323
2407,1.5612903225806452
2408,1.5580645161290323
2409,1.5580645161290323
2410,1.5516129032258064
2411,1.5451612903225806
2412,1.538709677419355
2413,1.5419354838709678
2414,1.5483870967741935
2415,1.5612903225806452
2416,1.5677419354838709
2417,1.570967741935484
2418,1.570967741935484
2419,1.564516129032258
2420,1.5612903225806452
2421,1.5612903225806452
2422,1.5677419354838709
2423,1.570967741935484
2424,1.570967741935484
2425,1.570967741935484
2426,1.564516129032258
2427,1.5580645161290323
2428,1.5483870967741935
2429,1.5451612903225806
2430,1.5548387096774194
2431,1.564516129032258
2432,1.570967741935484
2433,1.5741935483870968
2434,1.5774193548387097
2435,1.5838709677419356
2436,1.5774193548387097
2437,1.570967741935484
2438,1.5741935483870968
2439,1.5774193548387097
2440,1.5838709677419356
2441,1.5838709677419356
2442,1.5806451612903225
2443,1.570967741935484
2444,1.5677419354838709
2445,1.5580645161290323
2446,1.5612903225806452
2447,1.570967741935484
2448,1.5870967741935484
2449,1.5870967741935484
2450,1.5935483870967742
2451,1.5935483870967742
2452,1.596774193548387
2453,1.5903225806451613
2454,1.5870967741935484
2455,1.5870967741935484
2456,1.5870967741935484
2457,1.5903225806451613
2458,1.5935483870967742
2459,1.5903225806451613
2460,1.5870967741935484
2461,1.5806451612903225
2462,1.570967741935484
2463,1.5741935483870968
2464,1.5838709677419356
2465,1.5903225806451613
2466,1.5935483870967742
2467,1.596774193548387
2468,1.6
2469,1.596774193548387
2470,1.596774193548387
2471,1.596774193548387
2472,1.6
2473,1.6064516129032258
2474,1.6064516129032258
2475,1.6064516129032258
2476,1.6
2477,1.596774193548387
2478,1.5838709677419356
2479,1.5774193548387097
2480,1.5870967741935484
2481,1.596774193548387
2482,1.6064516129032258
2483,1.6129032258064515
2484,1.6161290322580646
2485,1.6129032258064515
2486,1.6096774193548387
2487,1.603225806451613
2488,1.6064516129032258
2489,1.6064516129032258
2490,1.6096774193548387
2491,1.6129032258064515
2492,1.6096774193548387
2493,1.603225806451613
2494,1.596774193548387
2495,1.5870967741935484
2496,1.5870967741935484
2497,1.596774193548387
2498,1.6096774193548387
2499,1.6161290322580646
2500,1.6193548387096774
2501,1.6193548387096774
2502,1.6193548387096774
2503,1.6129032258064515
2504,1.6096774193548387
2505,1.6161290322580646
2506,1.6225806451612903
2507,1.6258064516129032
2508,1.6258064516129032
2509,1.6225806451612903
2510,1.6193548387096774
2511,1.6064516129032258
2512,1.6
2513,1.603225806451613
2514,1.6161290322580646
2515,1.6258064516129032
2516,1.6290322580645162
2517,1.632258064516129
2518,1.635483870967742
2519,1.6290322580645162
2520,1.6290322580645162
2521,1.6258064516129032
2522,1.6290322580645162
2523,1.6258064516129032
2524,1.6258064516129032
2525,1.6258064516129032
2526,1.6225806451612903
2527,1.6129032258064515
2528,1.6064516129032258
2529,1.603225806451613
2530,1.6096774193548387
2531,1.6225806451612903
2532,1.6290322580645162
2533,1.632258064516129
2534,1.6290322580645162
2535,1.632258064516129
2536,1.6290322580645162
2537,1.6258064516129032
2538,1.6258064516129032
2539,1.632258064516129
2540,1.6387096774193548
2541,1.635483870967742
2542,1.632258064516129
2543,1.6258064516129032
2544,1.6161290322580646
2545,1.6064516129032258
2546,1.603225806451613
2547,1.6096774193548387
2548,1.6225806451612903
2549,1.6290322580645162
2550,1.632258064516129
2551,1.635483870967742
2552,1.632258064516129
2553,1.632258064516129
2554,1.6290322580645162
2555,1.635483870967742
2556,1.635483870967742
2557,1.635483870967742
2558,1.635483870967742
2559,1.632258064516129
2560,1.6258064516129032
2561,1.6129032258064515
2562,1.6064516129032258
2563,1.6064516129032258
2564,1.6161290322580646
2565,1.6258064516129032
2566,1.635483870967742
2567,1.635483870967742
2568,1.635483870967742
2569,1.632258064516129
2570,1.6290322580645162
2571,1.6258064516129032
2572,1.6290322580645162
2573,1.632258064516129
2574,1.632258064516129
2575,1.6290322580645162
2576,1.6258064516129032
2577,1.6225806451612903
2578,1.6129032258064515
2579,1.603225806451613
2580,1.6096774193548387
2581,1.6193548387096774
2582,1.6290322580645162
2583,1.632258064516129
2584,1.635483870967742
2585,1.635483870967742
2586,1.6290322580645162
2587,1.6258064516129032
2588,1.6258064516129032
2589,1.6290322580645162
2590,1.635483870967742
2591,1.6290322580645162
2592,1.6258064516129032
2593,1.6225806451612903
2594,1.6129032258064515
2595,1.6064516129032258
2596,1.6064516129032258
2597,1.6161290322580646
2598,1.6225806451612903
2599,1.6290322580645162
2600,1.635483870967742
2601,1.635483870967742
2602,1.635483870967742
2603,1.6290322580645162
2604,1.6258064516129032
2605,1.6258064516129032
2606,1.632258064516129
2607,1.6387096774193548
2608,1.6387096774193548
2609,1.632258064516129
2610,1.6290322580645162
2611,1.6193548387096774
2612,1.6096774193548387
2613,1.6129032258064515
2614,1.6225806451612903
2615,1.6290322580645162
2616,1.635483870967742
2617,1.6387096774193548
2618,1.6419354838709677
2619,1.6387096774193548
2620,1.632258064516129
2621,1.635483870967742
2622,1.6419354838709677
2623,1.6451612903225807
2624,1.6451612903225807
2625,1.6419354838709677
2626,1.6387096774193548
2627,1.6290322580645162
2628,1.6193548387096774
2629,1.6129032258064515
2630,1.6225806451612903
2631,1.632258064516129
2632,1.635483870967742
2633,1.6387096774193548
2634,1.6387096774193548
2635,1.6387096774193548
2636,1.6290322580645162
2637,1.632258064516129
2638,1.635483870967742
2639,1.6387096774193548
2640,1.6451612903225807
2641,1.6451612903225807
2642,1.6419354838709677
2643,1.6387096774193548
2644,1.6290322580645162
2645,1.6225806451612903
2646,1.6193548387096774
2647,1.6290322580645162
2648,1.6419354838709677
2649,1.6451612903225807
2650,1.6483870967741936
2651,1.6483870967741936
2652,1.6483870967741936
2653,1.6419354838709677
2654,1.635483870967742
2655,1.6387096774193548
2656,1.6419354838709677
2657,1.6419354838709677
2658,1.6387096774193548
2659,1.635483870967742
2660,1.6290322580645162
2661,1.6258064516129032
2662,1.6161290322580646
2663,1.6193548387096774
2664,1.6258064516129032
2665,1.635483870967742
2666,1.6419354838709677
2667,1.6451612903225807
2668,1.6451612903225807
2669,1.6451612903225807
2670,1.6387096774193548
2671,1.635483870967742
2672,1.6419354838709677
2673,1.6451612903225807
2674,1.6451612903225807
2675,1.6387096774193548
2676,1.635483870967742
2677,1.632258064516129
2678,1.6258064516129032
2679,1.6193548387096774
2680,1.6225806451612903
2681,1.632258064516129
2682,1.6387096774193548
2683,1.6451612903225807
2684,1.6451612903225807
2685,1.6451612903225807
2686,1.6419354838709677
2687,1.6387096774193548
2688,1.6387096774193548
2689,1.6483870967741936
2690,1.6516129032258065
2691,1.6483870967741936
2692,1.6419354838709677
2693,1.6387096774193548
2694,1.6290322580645162
2695,1.6225806451612903
2696,1.6193548387096774
2697,1.6258064516129032
2698,1.635483870967742
2699,1.6387096774193548
2700,1.6387096774193548
2701,1.6387096774193548
2702,1.6387096774193548
2703,1.635483870967742
2704,1.632258064516129
2705,1.635483870967742
2706,1.6387096774193548
2707,1.6451612903225807
2708,1.6419354838709677
2709,1.635483870967742
2710,1.632258064516129
2711,1.6225806451612903
2712,1.6096774193548387
2713,1.6129032258064515
2714,1.6258064516129032
2715,1.635483870967742
2716,1.6387096774193548
2717,1.6419354838709677
2718,1.6419354838709677
2719,1.6387096774193548
2720,1.635483870967742
2721,1.632258064516129
2722,1.6387096774193548
2723,1.6451612903225807
2724,1.6451612903225807
2725,1.6451612903225807
2726,1.635483870967742
2727,1.6290322580645162
2728,1.6193548387096774
2729,1.6096774193548387
2730,1.6161290322580646
2731,1.6258064516129032
2732,1.632258064516129
2733,1.6387096774193548
2734,1.6419354838709677
2735,1.6419354838709677
2736,1.6387096774193548
2737,1.632258064516129
2738,1.635483870967742
2739,1.6419354838709677
2740,1.6451612903225807
2741,1.6419354838709677
2742,1.6387096774193548
2743,1.632258064516129
2744,1.6225806451612903
2745,1.6193548387096774
2746,1.6161290322580646
2747,1.6225806451612903
2748,1.6290322580645162
2749,1.6387096774193548
2750,1.6419354838709677
2751,1.6451612903225807
2752,1.6387096774193548
2753,1.632258064516129
2754,1.6290322580645162
2755,1.632258064516129
2756,1.6387096774193548
2757,1.6419354838709677
2758,1.635483870967742
2759,1.6290322580645162
2760,1.6258064516129032
2761,1.6161290322580646
2762,1.6096774193548387
2763,1.6096774193548387
2764,1.6161290322580646
2765,1.6258064516129032
2766,1.632258064516129
2767,1.635483870967742
2768,1.635483870967742
2769,1.635483870967742
2770,1.6290322580645162
2771,1.6290322580645162
2772,1.632258064516129
2773,1.6387096774193548
2774,1.6387096774193548
2775,1.635483870967742
2776,1.632258064516129
2777,1.6258064516129032
2778,1.6161290322580646
2779,1.6096774193548387
2780,1.6096774193548387
2781,1.6193548387096774
2782,1.6258064516129032
2783,1.632258064516129
2784,1.635483870967742
2785,1.6387096774193548
2786,1.6387096774193548
2787,1.6387096774193548
2788,1.635483870967742
2789,1.6387096774193548
2790,1.6419354838709677
2791,1.6419354838709677
2792,1.635483870967742
2793,1.6290322580645162
2794,1.6193548387096774
2795,1.6064516129032258
2796,1.603225806451613
2797,1.6129032258064515
2798,1.6225806451612903
2799,1.6258064516129032
2800,1.632258064516129
2801,1.635483870967742
2802,1.632258064516129
2803,1.6290322580645162
2804,1.6290322580645162
2805,1.6290322580645162
2806,1.635483870967742
2807,1.635483870967742
2808,1.632258064516129
2809,1.6290322580645162
2810,1.6258064516129032
2811,1.6193548387096774
2812,1.6096774193548387
2813,1.6096774193548387
2814,1.6193548387096774
2815,1.6258064516129032
2816,1.632258064516129
2817,1.635483870967742
2818,1.635483870967742
2819,1.632258064516129
2820,1.6258064516129032
2821,1.6258064516129032
2822,1.632258064516129
2823,1.6387096774193548
2824,1.6387096774193548
2825,1.6419354838709677
2826,1.635483870967742
2827,1.6290322580645162
2828,1.6225806451612903
2829,1.6129032258064515
2830,1.6161290322580646
2831,1.6258064516129032
2832,1.6387096774193548
2833,1.6387096774193548
2834,1.6419354838709677
2835,1.6419354838709677
2836,1.6387096774193548
2837,1.635483870967742
2838,1.635483870967742
2839,1.6387096774193548
2840,1.6387096774193548
2841,1.6387096774193548
2842,1.635483870967742
2843,1.6290322580645162
2844,1.6193548387096774
2845,1.6129032258064515
2846,1.6096774193548387
2847,1.6161290322580646
2848,1.6225806451612903
2849,1.6290322580645162
2850,1.635483870967742
2851,1.635483870967742
2852,1.635483870967742
2853,1.6290322580645162
2854,1.6258064516129032
2855,1.6290322580645162
2856,1.635483870967742
2857,1.6387096774193548
2858,1.6387096774193548
2859,1.635483870967742
2860,1.6290322580645162
2861,1.6225806451612903
2862,1.6161290322580646
2863,1.6161290322580646
2864,1.6258064516129032
2865,1.6387096774193548
2866,1.6451612903225807
2867,1.6483870967741936
2868,1.6516129032258065
2869,1.6483870967741936
2870,1.6419354838709677
2871,1.6387096774193548
2872,1.6419354838709677
2873,1.6483870967741936
2874,1.6516129032258065
2875,1.6516129032258065
2876,1.6451612903225807
2877,1.6387096774193548
2878,1.6290322580645162
2879,1.6258064516129032
2880,1.6290322580645162
2881,1.635483870967742
2882,1.6451612903225807
2883,1.6483870967741936
2884,1.6483870967741936
2885,1.6483870967741936
2886,1.6419354838709677
2887,1.6387096774193548
2888,1.6387096774193548
2889,1.6451612903225807
2890,1.6516129032258065
2891,1.6516129032258065
2892,1.6483870967741936
2893,1.6451612903225807
2894,1.6387096774193548
2895,1.632258064516129
2896,1.6290322580645162
2897,1.6387096774193548
2898,1.6483870967741936
2899,1.6548387096774193
2900,1.6612903225806452
2901,1.664516129032258
2902,1.6612903225806452
2903,1.6580645161290322
2904,1.6548387096774193
2905,1.6580645161290322
2906,1.664516129032258
2907,1.664516129032258
2908,1.664516129032258
2909,1.6580645161290322
2910,1.6548387096774193
2911,1.6483870967741936
2912,1.6387096774193548
2913,1.6387096774193548
2914,1.6483870967741936
2915,1.6580645161290322
2916,1.664516129032258
2917,1.667741935483871
2918,1.6709677419354838
2919,1.667741935483871
2920,1.6612903225806452
2921,1.6580645161290322
2922,1.6612903225806452
2923,1.664516129032258
2924,1.6612903225806452
2925,1.6612903225806452
2926,1.6548387096774193
2927,1.6451612903225807
2928,1.6290322580645162
2929,1.6193548387096774
2930,1.6225806451612903
2931,1.632258064516129
2932,1.635483870967742
2933,1.635483870967742
2934,1.6387096774193548
2935,1.6387096774193548
2936,1.632258064516129
2937,1.6258064516129032
2938,1.6225806451612903
2939,1.6258064516129032
2940,1.632258064516129
2941,1.6290322580645162
2942,1.6258064516129032
2943,1.6193548387096774
2944,1.6129032258064515
2945,1.603225806451613
2946,1.6
2947,1.603225806451613
2948,1.6129032258064515
2949,1.6193548387096774
2950,1.6225806451612903
2951,1.6258064516129032
2952,1.6225806451612903
2953,1.6193548387096774
2954,1.6129032258064515
2955,1.6129032258064515
2956,1.6161290322580646
2957,1.6225806451612903
2958,1.6258064516129032
2959,1.6193548387096774
2960,1.6129032258064515
2961,1.6064516129032258
2962,1.6
2963,1.6
2964,1.6096774193548387
2965,1.6225806451612903
2966,1.6290322580645162
2967,1.6258064516129032
2968,1.6290322580645162
2969,1.6258064516129032
2970,1.6193548387096774
2971,1.6193548387096774
2972,1.6225806451612903
2973,1.6290322580645162
2974,1.6290322580645162
2975,1.6258064516129032
2976,1.6193548387096774
2977,1.6096774193548387
2978,1.603225806451613
2979,1.596774193548387
2980,1.6
2981,1.6064516129032258
2982,1.6129032258064515
2983,1.6193548387096774
2984,1.6225806451612903
2985,1.6225806451612903
2986,1.6193548387096774
2987,1.6193548387096774
2988,1.6193548387096774
2989,1.6225806451612903
2990,1.6290322580645162
2991,1.6258064516129032
2992,1.6258064516129032
2993,1.6193548387096774
2994,1.6096774193548387
2995,1.6
2996,1.596774193548387
2997,1.603225806451613
2998,1.6129032258064515
2999,1.6258064516129032
3000,1.6290322580645162
3001,1.6290322580645162
3002,1.6258064516129032
3003,1.6225806451612903
3004,1.6193548387096774
3005,1.6258064516129032
3006,1.6290322580645162
3007,1.632258064516129
3008,1.632258064516129
3009,1.6290322580645162
3010,1.6225806451612903
3011,1.6129032258064515
3012,1.6064516129032258
3013,1.603225806451613
3014,1.6129032258064515
3015,1.6258064516129032
3016,1.6290322580645162
3017,1.635483870967742
3018,1.6387096774193548
3019,1.635483870967742
3020,1.632258064516129
3021,1.6290322580645162
3022,1.6290322580645162
3023,1.6290322580645162
3024,1.6290322580645162
3025,1.6258064516129032
3026,1.6258064516129032
3027,1.6193548387096774
3028,1.6161290322580646
3029,1.6129032258064515
3030,1.6290322580645162
3031,1.6483870967741936
3032,1.667741935483871
3033,1.6870967741935483
3034,1.7
3035,1.7161290322580645
3036,1.7225806451612904
3037,1.735483870967742
3038,1.7548387096774194
3039,1.7741935483870968
3040,1.793548387096774
3041,1.8096774193548386
3042,1.8225806451612903
3043,1.835483870967742
3044,1.8387096774193548
3045,1.835483870967742
3046,1.8225806451612903
3047,1.8193548387096774
3048,1.8193548387096774
3049,1.8193548387096774
3050,1.8161290322580645
3051,1.8096774193548386
3052,1.803225806451613
3053,1.7870967741935484
3054,1.7774193548387096
3055,1.7774193548387096
3056,1.7741935483870968
3057,1.770967741935484
3058,1.764516129032258
3059,1.7548387096774194
3060,1.7419354838709677
3061,1.7225806451612904
3062,1.7
3063,1.6870967741935483
3064,1.6741935483870967
3065,1.667741935483871
3066,1.6580645161290322
3067,1.6483870967741936
3068,1.6387096774193548
3069,1.6258064516129032
3070,1.6096774193548387
3071,1.5903225806451613
3072,1.5774193548387097
3073,1.5677419354838709
3074,1.5516129032258064
3075,1.532258064516129
3076,1.5161290322580645
3077,1.5032258064516129
3078,1.4870967741935484
3079,1.4741935483870967
3080,1.4806451612903226
3081,1.4903225806451612
3082,1.4967741935483871
3083,1.5032258064516129
3084,1.5064516129032257
3085,1.5096774193548388
3086,1.5096774193548388
3087,1.5096774193548388
3088,1.5096774193548388
3089,1.5161290322580645
3090,1.5225806451612902
3091,1.5290322580645161
3092,1.532258064516129
3093,1.532258064516129
3094,1.5258064516129033
3095,1.5193548387096774
3096,1.5225806451612902
3097,1.5258064516129033
3098,1.5419354838709678
3099,1.5516129032258064
3100,1.5612903225806452
3101,1.5677419354838709
3102,1.570967741935484
3103,1.570967741935484
3104,1.5741935483870968
3105,1.5838709677419356
3106,1.5870967741935484
3107,1.596774193548387
3108,1.6
3109,1.6
3110,1.6
3111,1.5935483870967742
3112,1.5870967741935484
3113,1.5870967741935484
3114,1.6
3115,1.6129032258064515
3116,1.6193548387096774
3117,1.6258064516129032
3118,1.632258064516129
3119,1.6290322580645162
3120,1.6290322580645162
3121,1.6258064516129032
3122,1.632258064516129
3123,1.6419354838709677
3124,1.6451612903225807
3125,1.6451612903225807
3126,1.6451612903225807
3127,1.6419354838709677
3128,1.635483870967742
3129,1.6290322580645162
3130,1.632258064516129
3131,1.6387096774193548
3132,1.6483870967741936
3133,1.6516129032258065
3134,1.6548387096774193
3135,1.6548387096774193
3136,1.6516129032258065
3137,1.6483870967741936
3138,1.6483870967741936
3139,1.6548387096774193
3140,1.6580645161290322
3141,1.6548387096774193
3142,1.6516129032258065
3143,1.6483870967741936
3144,1.6419354838709677
3145,1.6290322580645162
3146,1.6290322580645162
3147,1.6387096774193548
3148,1.6516129032258065
3149,1.6580645161290322
3150,1.664516129032258
3151,1.664516129032258
3152,1.664516129032258
3153,1.6580645161290322
3154,1.6580645161290322
3155,1.6580645161290322
3156,1.6612903225806452
3157,1.664516129032258
3158,1.664516129032258
3159,1.6612903225806452
3160,1.6580645161290322
3161,1.6483870967741936
3162,1.6387096774193548
3163,1.6387096774193548
3164,1.6451612903225807
3165,1.6580645161290322
3166,1.664516129032258
3167,1.667741935483871
3168,1.667741935483871
3169,1.664516129032258
3170,1.664516129032258
3171,1.664516129032258
3172,1.667741935483871
3173,1.6741935483870967
3174,1.6774193548387097
3175,1.6741935483870967
3176,1.6741935483870967
3177,1.664516129032258
3178,1.6548387096774193
3179,1.6483870967741936
3180,1.6516129032258065
3181,1.6612903225806452
3182,1.6709677419354838
3183,1.6741935483870967
3184,1.6774193548387097
3185,1.6774193548387097
3186,1.6741935483870967
3187,1.6709677419354838
3188,1.667741935483871
3189,1.6709677419354838
3190,1.6741935483870967
3191,1.6741935483870967
3192,1.6709677419354838
3193,1.667741935483871
3194,1.6612903225806452
3195,1.6516129032258065
3196,1.6483870967741936
3197,1.6548387096774193
3198,1.6612903225806452
3199,1.6709677419354838
3200,1.6774193548387097
3201,1.6806451612903226
3202,1.6806451612903226
3203,1.6774193548387097
3204,1.6741935483870967
3205,1.6741935483870967
3206,1.6774193548387097
3207,1.6838709677419355
3208,1.6806451612903226
3209,1.6774193548387097
3210,1.6741935483870967
3211,1.667741935483871
3212,1.6612903225806452
3213,1.6580645161290322
3214,1.664516129032258
3215,1.6741935483870967
3216,1.6806451612903226
3217,1.6838709677419355
3218,1.6870967741935483
3219,1.6838709677419355
3220,1.6806451612903226
3221,1.6774193548387097
3222,1.6806451612903226
3223,1.6870967741935483
3224,1.6935483870967742
3225,1.6903225806451614
3226,1.6870967741935483
3227,1.6774193548387097
3228,1.6741935483870967
3229,1.664516129032258
3230,1.667741935483871
3231,1.6774193548387097
3232,1.6870967741935483
3233,1.696774193548387
3234,1.7
3235,1.706451612903226
3236,1.706451612903226
3237,1.7032258064516128
3238,1.7
3239,1.7
3240,1.7096774193548387
3241,1.7129032258064516
3242,1.7096774193548387
3243,1.706451612903226
3244,1.7
3245,1.696774193548387
3246,1.6903225806451614
3247,1.7
3248,1.7096774193548387
3249,1.7161290322580645
3250,1.7193548387096773
3251,1.7258064516129032
3252,1.7258064516129032
3253,1.7225806451612904
3254,1.7193548387096773
3255,1.7225806451612904
3256,1.732258064516129
3257,1.735483870967742
3258,1.732258064516129
3259,1.732258064516129
3260,1.729032258064516
3261,1.7225806451612904
3262,1.7129032258064516
3263,1.7096774193548387
3264,1.7161290322580645
3265,1.729032258064516
3266,1.735483870967742
3267,1.738709677419355
3268,1.738709677419355
3269,1.732258064516129
3270,1.729032258064516
3271,1.7258064516129032
3272,1.729032258064516
3273,1.732258064516129
3274,1.735483870967742
3275,1.735483870967742
3276,1.729032258064516
3277,1.7225806451612904
3278,1.7129032258064516
3279,1.7032258064516128
3280,1.7032258064516128
3281,1.7129032258064516
3282,1.7193548387096773
3283,1.7225806451612904
3284,1.7225806451612904
3285,1.7193548387096773
3286,1.7161290322580645
3287,1.7096774193548387
3288,1.706451612903226
3289,1.706451612903226
3290,1.7129032258064516
3291,1.7096774193548387
3292,1.7
3293,1.6935483870967742
3294,1.6870967741935483
3295,1.6741935483870967
3296,1.667741935483871
3297,1.6709677419354838
3298,1.6774193548387097
3299,1.6806451612903226
3300,1.6806451612903226
3301,1.6774193548387097
3302,1.6741935483870967
3303,1.664516129032258
3304,1.6548387096774193
3305,1.6516129032258065
3306,1.6516129032258065
3307,1.6516129032258065
3308,1.6516129032258065
3309,1.6451612903225807
3310,1.6387096774193548
3311,1.6258064516129032
3312,1.6129032258064515
3313,1.6064516129032258
3314,1.6096774193548387
3315,1.6193548387096774
3316,1.6193548387096774
3317,1.6161290322580646
3318,1.6161290322580646
3319,1.6096774193548387
3320,1.603225806451613
3321,1.5935483870967742
3322,1.5935483870967742
3323,1.5935483870967742
3324,1.5903225806451613
3325,1.5838709677419356
3326,1.5741935483870968
3327,1.5677419354838709
3328,1.5548387096774194
3329,1.5451612903225806
3330,1.5451612903225806
3331,1.5516129032258064
3332,1.5580645161290323
3333,1.5612903225806452
3334,1.5612903225806452
3335,1.5612903225806452
3336,1.5548387096774194
3337,1.5483870967741935
3338,1.5451612903225806
3339,1.5451612903225806
3340,1.5483870967741935
3341,1.5483870967741935
3342,1.5451612903225806
3343,1.538709677419355
3344,1.532258064516129
3345,1.5225806451612902
3346,1.5129032258064516
3347,1.5193548387096774
3348,1.5258064516129033
3349,1.532258064516129
3350,1.5354838709677419
3351,1.5354838709677419
3352,1.532258064516129
3353,1.5258064516129033
3354,1.5225806451612902
3355,1.5225806451612902
3356,1.5290322580645161
3357,1.532258064516129
3358,1.5290322580645161
3359,1.5290322580645161
3360,1.5225806451612902
3361,1.5129032258064516
3362,1.5064516129032257
3363,1.5064516129032257
3364,1.5129032258064516
3365,1.5225806451612902
3366,1.532258064516129
3367,1.532258064516129
3368,1.5354838709677419
3369,1.5354838709677419
3370,1.5354838709677419
3371,1.532258064516129
3372,1.532258064516129
3373,1.538709677419355
3374,1.5419354838709678
3375,1.538709677419355
3376,1.5354838709677419
3377,1.532258064516129
3378,1.5258064516129033
3379,1.5193548387096774
3380,1.5193548387096774
3381,1.532258064516129
3382,1.5419354838709678
3383,1.5483870967741935
3384,1.5483870967741935
3385,1.5483870967741935
3386,1.5451612903225806
3387,1.5419354838709678
3388,1.5419354838709678
3389,1.5451612903225806
3390,1.5516129032258064
3391,1.5516129032258064
3392,1.5516129032258064
3393,1.5516129032258064
3394,1.5419354838709678
3395,1.538709677419355
3396,1.5354838709677419
3397,1.5451612903225806
3398,1.5483870967741935
3399,1.5548387096774194
3400,1.5580645161290323
3401,1.5580645161290323
3402,1.5580645161290323
3403,1.5516129032258064
3404,1.5516129032258064
3405,1.5516129032258064
3406,1.5580645161290323
3407,1.5612903225806452
3408,1.5612903225806452
3409,1.5580645161290323
3410,1.5548387096774194
3411,1.5451612903225806
3412,1.538709677419355
3413,1.5354838709677419
3414,1.5419354838709678
3415,1.5548387096774194
3416,1.5612903225806452
3417,1.5677419354838709
3418,1.570967741935484
3419,1.5677419354838709
3420,1.5677419354838709
3421,1.5677419354838709
3422,1.570967741935484
3423,1.5774193548387097
3424,1.5806451612903225
3425,1.5774193548387097
3426,1.5741935483870968
3427,1.5677419354838709
3428,1.5580645161290323
3429,1.5483870967741935
3430,1.5483870967741935
3431,1.5580645161290323
3432,1.5677419354838709
3433,1.5741935483870968
3434,1.5774193548387097
3435,1.5806451612903225
3436,1.5774193548387097
3437,1.570967741935484
3438,1.570967741935484
3439,1.5774193548387097
3440,1.5838709677419356
3441,1.5870967741935484
3442,1.5870967741935484
3443,1.5838709677419356
3444,1.5774193548387097
3445,1.5741935483870968
3446,1.570967741935484
3447,1.5741935483870968
3448,1.5870967741935484
3449,1.596774193548387
3450,1.6
3451,1.6
3452,1.6
3453,1.5935483870967742
3454,1.5935483870967742
3455,1.5935483870967742
3456,1.6
3457,1.603225806451613
3458,1.603225806451613
3459,1.596774193548387
3460,1.5935483870967742
3461,1.5838709677419356
3462,1.5741935483870968
3463,1.570967741935484
3464,1.5774193548387097
3465,1.5870967741935484
3466,1.596774193548387
3467,1.6
3468,1.6
3469,1.603225806451613
3470,1.603225806451613
3471,1.6
3472,1.6
3473,1.6064516129032258
3474,1.6096774193548387
3475,1.6096774193548387
3476,1.6064516129032258
3477,1.603225806451613
3478,1.6
3479,1.5903225806451613
3480,1.5903225806451613
3481,1.596774193548387
3482,1.6064516129032258
3483,1.6161290322580646
3484,1.6161290322580646
3485,1.6193548387096774
3486,1.6193548387096774
3487,1.6161290322580646
3488,1.6129032258064515
3489,1.6129032258064515
3490,1.6161290322580646
3491,1.6161290322580646
3492,1.6161290322580646
3493,1.6129032258064515
3494,1.6064516129032258
3495,1.6
3496,1.5935483870967742
3497,1.6
3498,1.6096774193548387
3499,1.6193548387096774
3500,1.6225806451612903
3501,1.6258064516129032
3502,1.6258064516129032
3503,1.6193548387096774
3504,1.6161290322580646
3505,1.6161290322580646
3506,1.6193548387096774
3507,1.6258064516129032
3508,1.6258064516129032
3509,1.6258064516129032
3510,1.6225806451612903
3511,1.6129032258064515
3512,1.603225806451613
3513,1.6
3514,1.6064516129032258
3515,1.6129032258064515
3516,1.6225806451612903
3517,1.6258064516129032
3518,1.632258064516129
3519,1.6290322580645162
3520,1.6225806451612903
3521,1.6193548387096774
3522,1.6225806451612903
3523,1.6258064516129032
3524,1.6290322580645162
3525,1.632258064516129
3526,1.6258064516129032
3527,1.6193548387096774
3528,1.6096774193548387
3529,1.6
3530,1.596774193548387
3531,1.603225806451613
3532,1.6161290322580646
3533,1.6225806451612903
3534,1.6225806451612903
3535,1.6258064516129032
3536,1.6225806451612903
3537,1.6161290322580646
3538,1.6161290322580646
3539,1.6193548387096774
3540,1.6258064516129032
3541,1.6258064516129032
3542,1.6258064516129032
3543,1.6225806451612903
3544,1.6129032258064515
3545,1.6064516129032258
3546,1.6
3547,1.603225806451613
3548,1.6161290322580646
3549,1.6258064516129032
3550,1.6290322580645162
3551,1.632258064516129
3552,1.632258064516129
3553,1.6290322580645162
3554,1.6258064516129032
3555,1.6258064516129032
3556,1.6290322580645162
3557,1.632258064516129
3558,1.635483870967742
3559,1.6290322580645162
3560,1.6258064516129032
3561,1.6161290322580646
3562,1.6096774193548387
3563,1.603225806451613
3564,1.6096774193548387
3565,1.6193548387096774
3566,1.6290322580645162
3567,1.6290322580645162
3568,1.6290322580645162
3569,1.6258064516129032
3570,1.6225806451612903
3571,1.6193548387096774
3572,1.6225806451612903
3573,1.6290322580645162
3574,1.6290322580645162
3575,1.6290322580645162
3576,1.6258064516129032
3577,1.6193548387096774
3578,1.6096774193548387
3579,1.6
3580,1.6
3581,1.603225806451613
3582,1.6129032258064515
3583,1.6193548387096774
3584,1.6225806451612903
3585,1.6258064516129032
3586,1.6225806451612903
3587,1.6193548387096774
3588,1.6161290322580646
3589,1.6193548387096774
3590,1.6258064516129032
3591,1.6225806451612903
3592,1.6225806451612903
3593,1.6193548387096774
3594,1.6161290322580646
3595,1.6096774193548387
3596,1.596774193548387
3597,1.6
3598,1.6096774193548387
3599,1.6193548387096774
3600,1.6225806451612903
3601,1.6258064516129032
3602,1.6290322580645162
3603,1.6225806451612903
3604,1.6161290322580646
3605,1.6129032258064515
3606,1.6193548387096774
3607,1.6258064516129032
3608,1.6258064516129032
3609,1.6225806451612903
3610,1.6193548387096774
3611,1.6129032258064515
3612,1.6064516129032258
3613,1.603225806451613
3614,1.6096774193548387
3615,1.6225806451612903
3616,1.6258064516129032
3617,1.6290322580645162
3618,1.632258064516129
3619,1.632258064516129
3620,1.6258064516129032
3621,1.6258064516129032
3622,1.6258064516129032
3623,1.6290322580645162
3624,1.635483870967742
3625,1.635483870967742
3626,1.6290322580645162
3627,1.6258064516129032
3628,1.6129032258064515
3629,1.6064516129032258
3630,1.6064516129032258
3631,1.6129032258064515
3632,1.6225806451612903
3633,1.6290322580645162
3634,1.6387096774193548
3635,1.6387096774193548
3636,1.6387096774193548
3637,1.632258064516129
3638,1.6290322580645162
3639,1.632258064516129
3640,1.635483870967742
3641,1.635483870967742
3642,1.635483870967742
3643,1.632258064516129
3644,1.6290322580645162
3645,1.6225806451612903
3646,1.6129032258064515
3647,1.6161290322580646
3648,1.6225806451612903
3649,1.6290322580645162
3650,1.635483870967742
3651,1.6387096774193548
3652,1.635483870967742
3653,1.635483870967742
3654,1.6290322580645162
3655,1.6290322580645162
3656,1.6290322580645162
3657,1.632258064516129
3658,1.635483870967742
3659,1.632258064516129
3660,1.6290322580645162
3661,1.6193548387096774
3662,1.6096774193548387
3663,1.6064516129032258
3664,1.6129032258064515
3665,1.6225806451612903
3666,1.6290322580645162
3667,1.6290322580645162
3668,1.632258064516129
3669,1.6290322580645162
3670,1.6225806451612903
3671,1.6193548387096774
3672,1.6225806451612903
3673,1.6258064516129032
3674,1.6290322580645162
3675,1.6290322580645162
3676,1.6258064516129032
3677,1.6225806451612903
3678,1.6161290322580646
3679,1.6096774193548387
3680,1.6096774193548387
3681,1.6161290322580646
3682,1.6258064516129032
3683,1.632258064516129
3684,1.635483870967742
3685,1.635483870967742
3686,1.635483870967742
3687,1.6290322580645162
3688,1.6290322580645162
3689,1.6258064516129032
3690,1.632258064516129
3691,1.635483870967742
3692,1.6290322580645162
3693,1.6258064516129032
3694,1.6161290322580646
3695,1.6064516129032258
3696,1.6
3697,1.603225806451613
3698,1.6129032258064515
3699,1.6225806451612903
3700,1.6290322580645162
3701,1.6290322580645162
3702,1.632258064516129
3703,1.6290322580645162
3704,1.6225806451612903
3705,1.6225806451612903
3706,1.6258064516129032
3707,1.6290322580645162
3708,1.6290322580645162
3709,1.6290322580645162
3710,1.6258064516129032
3711,1.6193548387096774
3712,1.6096774193548387
3713,1.603225806451613
3714,1.6096774193548387
3715,1.6193548387096774
3716,1.6290322580645162
3717,1.632258064516129
3718,1.635483870967742
3719,1.632258064516129
3720,1.6290322580645162
3721,1.6193548387096774
3722,1.6225806451612903
3723,1.632258064516129
3724,1.635483870967742
3725,1.635483870967742
3726,1.632258064516129
3727,1.6290322580645162
3728,1.6225806451612903
3729,1.6129032258064515
3730,1.6096774193548387
3731,1.6193548387096774
3732,1.6258064516129032
3733,1.635483870967742
3734,1.6387096774193548
3735,1.6419354838709677
3736,1.635483870967742
3737,1.6290322580645162
3738,1.6225806451612903
3739,1.6258064516129032
3740,1.632258064516129
3741,1.635483870967742
3742,1.632258064516129
3743,1.6258064516129032
3744,1.6193548387096774
3745,1.6129032258064515
3746,1.6064516129032258
3747,1.6129032258064515
3748,1.6225806451612903
3749,1.632258064516129
3750,1.635483870967742
3751,1.6387096774193548
3752,1.6387096774193548
3753,1.6387096774193548
3754,1.632258064516129
3755,1.632258064516129
3756,1.635483870967742
3757,1.6387096774193548
3758,1.6419354838709677
3759,1.635483870967742
3760,1.635483870967742
3761,1.6258064516129032
3762,1.6193548387096774
3763,1.6129032258064515
3764,1.6193548387096774
3765,1.6290322580645162
3766,1.6387096774193548
3767,1.6419354838709677
3768,1.6483870967741936
3769,1.6451612903225807
3770,1.6419354838709677
3771,1.6387096774193548
3772,1.6387096774193548
3773,1.6451612903225807
3774,1.6483870967741936
3775,1.6516129032258065
3776,1.6451612903225807
3777,1.6387096774193548
3778,1.635483870967742
3779,1.6225806451612903
3780,1.6225806451612903
3781,1.632258064516129
3782,1.6387096774193548
3783,1.6451612903225807
3784,1.6483870967741936
3785,1.6483870967741936
3786,1.6451612903225807
3787,1.6419354838709677
3788,1.6387096774193548
3789,1.6419354838709677
3790,1.6451612903225807
3791,1.6483870967741936
3792,1.6451612903225807
3793,1.6419354838709677
3794,1.6387096774193548
3795,1.635483870967742
3796,1.6258064516129032
3797,1.6290322580645162
3798,1.6387096774193548
3799,1.6483870967741936
3800,1.6548387096774193
3801,1.6580645161290322
3802,1.6612903225806452
3803,1.6580645161290322
3804,1.6548387096774193
3805,1.6580645161290322
3806,1.664516129032258
3807,1.667741935483871
3808,1.667741935483871
3809,1.664516129032258
3810,1.6612903225806452
3811,1.6548387096774193
3812,1.6483870967741936
3813,1.6419354838709677
3814,1.6483870967741936
3815,1.6548387096774193
3816,1.664516129032258
3817,1.6709677419354838
3818,1.6741935483870967
3819,1.6709677419354838
3820,1.664516129032258
3821,1.6580645161290322
3822,1.6580645161290322
3823,1.6612903225806452
3824,1.6612903225806452
3825,1.6612903225806452
3826,1.6548387096774193
3827,1.6483870967741936
3828,1.6387096774193548
3829,1.6258064516129032
3830,1.6193548387096774
3831,1.6258064516129032
3832,1.632258064516129
3833,1.635483870967742
3834,1.6387096774193548
3835,1.635483870967742
3836,1.6290322580645162
3837,1.6225806451612903
3838,1.6161290322580646
3839,1.6161290322580646
3840,1.6225806451612903
3841,1.6258064516129032
3842,1.6258064516129032
3843,1.6225806451612903
3844,1.6129032258064515
3845,1.6064516129032258
3846,1.596774193548387
3847,1.596774193548387
3848,1.6064516129032258
3849,1.6129032258064515
3850,1.6225806451612903
3851,1.6258064516129032
3852,1.6258064516129032
3853,1.6225806451612903
3854,1.6161290322580646
3855,1.6161290322580646
3856,1.6225806451612903
3857,1.6258064516129032
3858,1.6258064516129032
3859,1.6225806451612903
3860,1.6161290322580646
3861,1.6096774193548387
3862,1.6
3863,1.596774193548387
3864,1.6
3865,1.6096774193548387
3866,1.6161290322580646
3867,1.6225806451612903
3868,1.6258064516129032
3869,1.6258064516129032
3870,1.6225806451612903
3871,1.6161290322580646
3872,1.6129032258064515
3873,1.6193548387096774
3874,1.6225806451612903
3875,1.6258064516129032
3876,1.6193548387096774
3877,1.6193548387096774
3878,1.6096774193548387
3879,1.6
3880,1.596774193548387
3881,1.6064516129032258
3882,1.6161290322580646
3883,1.6225806451612903
3884,1.6258064516129032
3885,1.6290322580645162
3886,1.6258064516129032
3887,1.6225806451612903
3888,1.6129032258064515
3889,1.6161290322580646
3890,1.6225806451612903
3891,1.6258064516129032
3892,1.6225806451612903
3893,1.6193548387096774
3894,1.6129032258064515
3895,1.603225806451613
3896,1.6
3897,1.596774193548387
3898,1.603225806451613
3899,1.6161290322580646
3900,1.6225806451612903
3901,1.6225806451612903
3902,1.6225806451612903
3903,1.6225806451612903
3904,1.6193548387096774
3905,1.6161290322580646
3906,1.6193548387096774
3907,1.6258064516129032
3908,1.6258064516129032
3909,1.6258064516129032
3910,1.6225806451612903
3911,1.6096774193548387
3912,1.6
3913,1.5935483870967742
3914,1.6
3915,1.6096774193548387
3916,1.6193548387096774
3917,1.6225806451612903
3918,1.6258064516129032
3919,1.6290322580645162
3920,1.6258064516129032
3921,1.6193548387096774
3922,1.6161290322580646
3923,1.6193548387096774
3924,1.6225806451612903
3925,1.6193548387096774
3926,1.6193548387096774
3927,1.6129032258064515
3928,1.6064516129032258
3929,1.603225806451613
3930,1.6096774193548387
3931,1.6258064516129032
3932,1.6451612903225807
3933,1.6612903225806452
3934,1.6774193548387097
3935,1.696774193548387
3936,1.7129032258064516
3937,1.729032258064516
3938,1.7451612903225806
3939,1.764516129032258
3940,1.793548387096774
3941,1.8129032258064517
3942,1.8258064516129031
3943,1.832258064516129
3944,1.8387096774193548
3945,1.835483870967742
3946,1.8258064516129031
3947,1.8161290322580645
3948,1.8096774193548386
3949,1.8096774193548386
3950,1.8161290322580645
3951,1.8096774193548386
3952,1.8
3953,1.7870967741935484
3954,1.770967741935484
3955,1.761290322580645
3956,1.7580645161290323
3957,1.7548387096774194
3958,1.7516129032258065
3959,1.7483870967741935
3960,1.738709677419355
3961,1.7193548387096773
3962,1.7
3963,1.6741935483870967
3964,1.667741935483871
3965,1.664516129032258
3966,1.6548387096774193
3967,1.6451612903225807
3968,1.635483870967742
3969,1.6225806451612903
3970,1.6064516129032258
3971,1.5935483870967742
3972,1.5774193548387097
3973,1.5677419354838709
3974,1.5516129032258064
3975,1.532258064516129
3976,1.5096774193548388
3977,1.4967741935483871
3978,1.4806451612903226
3979,1.467741935483871
3980,1.461290322580645
3981,1.467741935483871
3982,1.4741935483870967
3983,1.4838709677419355
3984,1.4870967741935484
3985,1.4870967741935484
3986,1.4903225806451612
3987,1.4903225806451612
3988,1.4870967741935484
3989,1.4935483870967743
3990,1.5032258064516129
3991,1.5129032258064516
3992,1.5193548387096774
3993,1.5225806451612902
3994,1.5225806451612902
3995,1.5193548387096774
3996,1.5161290322580645
3997,1.5193548387096774
3998,1.5290322580645161
3999,1.5451612903225806
4000,1.5548387096774194
4001,1.5612903225806452
4002,1.570967741935484
4003,1.5741935483870968
4004,1.5741935483870968
4005,1.5774193548387097
4006,1.5838709677419356
4007,1.5935483870967742
4008,1.6
4009,1.596774193548387
4010,1.6
4011,1.596774193548387
4012,1.5903225806451613
4013,1.5870967741935484
4014,1.596774193548387
4015,1.6096774193548387
4016,1.6225806451612903
4017,1.6258064516129032
4018,1.632258064516129
4019,1.635483870967742
4020,1.635483870967742
4021,1.635483870967742
4022,1.635483870967742
4023,1.6387096774193548
4024,1.6419354838709677
4025,1.6451612903225807
4026,1.6419354838709677
4027,1.6387096774193548
4028,1.635483870967742
4029,1.6290322580645162
4030,1.6258064516129032
4031,1.632258064516129
4032,1.6419354838709677
4033,1.6483870967741936
4034,1.6516129032258065
4035,1.6548387096774193
4036,1.6548387096774193
4037,1.6516129032258065
4038,1.6483870967741936
4039,1.6483870967741936
4040,1.6580645161290322
4041,1.664516129032258
4042,1.6612903225806452
4043,1.6612903225806452
4044,1.6548387096774193
4045,1.6483870967741936
4046,1.6419354838709677
4047,1.6387096774193548
4048,1.6483870967741936
4049,1.6548387096774193
4050,1.6612903225806452
4051,1.664516129032258
4052,1.667741935483871
4053,1.664516129032258
4054,1.6612903225806452
4055,1.6580645161290322
4056,1.6612903225806452
4057,1.6709677419354838
4058,1.6741935483870967
4059,1.6709677419354838
4060,1.667741935483871
4061,1.6612903225806452
4062,1.6516129032258065
4063,1.6483870967741936
4064,1.6483870967741936
4065,1.6580645161290322
4066,1.664516129032258
4067,1.667741935483871
4068,1.6741935483870967
4069,1.6741935483870967
4070,1.6709677419354838
4071,1.664516129032258
4072,1.6612903225806452
4073,1.667741935483871
4074,1.6741935483870967
4075,1.6741935483870967
4076,1.6709677419354838
4077,1.667741935483871
4078,1.6580645161290322
4079,1.6516129032258065
4080,1.6483870967741936
4081,1.6548387096774193
4082,1.6612903225806452
4083,1.667741935483871
4084,1.6774193548387097
4085,1.6774193548387097
4086,1.6774193548387097
4087,1.6774193548387097
4088,1.6741935483870967
4089,1.6741935483870967
4090,1.6806451612903226
4091,1.6806451612903226
4092,1.6806451612903226
4093,1.6774193548387097
4094,1.6709677419354838
4095,1.6612903225806452
4096,1.6516129032258065
4097,1.6516129032258065
4098,1.6580645161290322
4099,1.667741935483871
4100,1.6774193548387097
4101,1.6806451612903226
4102,1.6806451612903226
4103,1.6806451612903226
4104,1.6774193548387097
4105,1.6741935483870967
4106,1.6741935483870967
4107,1.6806451612903226
4108,1.6838709677419355
4109,1.6806451612903226
4110,1.6774193548387097
4111,1.6709677419354838
4112,1.664516129032258
4113,1.6580645161290322
4114,1.6612903225806452
4115,1.6741935483870967
4116,1.6806451612903226
4117,1.6870967741935483
4118,1.6903225806451614
4119,1.6903225806451614
4120,1.6903225806451614
4121,1.6870967741935483
4122,1.6838709677419355
4123,1.6870967741935483
4124,1.6935483870967742
4125,1.6935483870967742
4126,1.6935483870967742
4127,1.6903225806451614
4128,1.6838709677419355
4129,1.6741935483870967
4130,1.6741935483870967
4131,1.6806451612903226
4132,1.6903225806451614
4133,1.696774193548387
4134,1.7
4135,1.7032258064516128
4136,1.7
4137,1.7
4138,1.696774193548387
4139,1.7
4140,1.706451612903226
4141,1.7096774193548387
4142,1.7096774193548387
4143,1.706451612903226
4144,1.7
4145,1.6935483870967742
4146,1.6870967741935483
4147,1.6870967741935483
4148,1.696774193548387
4149,1.7032258064516128
4150,1.7129032258064516
4151,1.7161290322580645
4152,1.7225806451612904
4153,1.7193548387096773
4154,1.7161290322580645
4155,1.7161290322580645
4156,1.7225806451612904
4157,1.729032258064516
4158,1.732258064516129
4159,1.729032258064516
4160,1.7258064516129032
4161,1.7225806451612904
4162,1.7129032258064516
4163,1.7032258064516128
4164,1.706451612903226
4165,1.7161290322580645
4166,1.7225806451612904
4167,1.729032258064516
4168,1.729032258064516
4169,1.729032258064516
4170,1.7258064516129032
4171,1.7225806451612904
4172,1.7193548387096773
4173,1.7225806451612904
4174,1.7258064516129032
4175,1.7225806451612904
4176,1.7225806451612904
4177,1.7193548387096773
4178,1.7129032258064516
4179,1.7
4180,1.6935483870967742
4181,1.7
4182,1.706451612903226
4183,1.7129032258064516
4184,1.7161290322580645
4185,1.7129032258064516
4186,1.7096774193548387
4187,1.706451612903226
4188,1.7032258064516128
4189,1.7
4190,1.7032258064516128
4191,1.706451612903226
4192,1.7
4193,1.696774193548387
4194,1.6903225806451614
4195,1.6806451612903226
4196,1.6709677419354838
4197,1.664516129032258
4198,1.6741935483870967
4199,1.6806451612903226
4200,1.6806451612903226
4201,1.6806451612903226
4202,1.6774193548387097
4203,1.6741935483870967
4204,1.6612903225806452
4205,1.6548387096774193
4206,1.6548387096774193
4207,1.6548387096774193
4208,1.6548387096774193
4209,1.6516129032258065
4210,1.6451612903225807
4211,1.635483870967742
4212,1.6225806451612903
4213,1.6096774193548387
4214,1.6096774193548387
4215,1.6161290322580646
4216,1.6193548387096774
4217,1.6193548387096774
4218,1.6161290322580646
4219,1.6096774193548387
4220,1.603225806451613
4221,1.5935483870967742
4222,1.5870967741935484
4223,1.5903225806451613
4224,1.5935483870967742
4225,1.5935483870967742
4226,1.5870967741935484
4227,1.5774193548387097
4228,1.5677419354838709
4229,1.5548387096774194
4230,1.5483870967741935
4231,1.5516129032258064
4232,1.5580645161290323
4233,1.5612903225806452
4234,1.564516129032258
4235,1.564516129032258
4236,1.5580645161290323
4237,1.5548387096774194
4238,1.5483870967741935
4239,1.5483870967741935
4240,1.5516129032258064
4241,1.5548387096774194
4242,1.5580645161290323
4243,1.5516129032258064
4244,1.5451612903225806
4245,1.5354838709677419
4246,1.5290322580645161
4247,1.5258064516129033
4248,1.5354838709677419
4249,1.5419354838709678
4250,1.5483870967741935
4251,1.5483870967741935
4252,1.5451612903225806
4253,1.538709677419355
4254,1.5354838709677419
4255,1.5354838709677419
4256,1.5354838709677419
4257,1.5419354838709678
4258,1.5419354838709678
4259,1.5419354838709678
4260,1.538709677419355
4261,1.532258064516129
4262,1.5258064516129033
4263,1.5193548387096774
4264,1.5225806451612902
4265,1.532258064516129
4266,1.538709677419355
4267,1.5419354838709678
4268,1.5451612903225806
4269,1.5451612903225806
4270,1.5451612903225806
4271,1.538709677419355
4272,1.5354838709677419
4273,1.538709677419355
4274,1.5451612903225806
4275,1.5483870967741935
4276,1.5419354838709678
4277,1.538709677419355
4278,1.532258064516129
4279,1.5225806451612902
4280,1.5161290322580645
4281,1.5225806451612902
4282,1.5354838709677419
4283,1.5451612903225806
4284,1.5483870967741935
4285,1.5516129032258064
4286,1.5516129032258064
4287,1.5483870967741935
4288,1.5483870967741935
4289,1.5483870967741935
4290,1.5548387096774194
4291,1.5612903225806452
4292,1.5580645161290323
4293,1.5548387096774194
4294,1.5483870967741935
4295,1.5419354838709678
4296,1.5354838709677419
4297,1.5354838709677419
4298,1.5419354838709678
4299,1.5483870967741935
4300,1.5516129032258064
4301,1.5548387096774194
4302,1.5580645161290323
4303,1.5580645161290323
4304,1.5516129032258064
4305,1.5483870967741935
4306,1.5548387096774194
4307,1.5612903225806452
4308,1.564516129032258
4309,1.564516129032258
4310,1.5612903225806452
4311,1.5580645161290323
4312,1.5483870967741935
4313,1.5451612903225806
4314,1.5483870967741935
4315,1.5580645161290323
4316,1.5677419354838709
4317,1.5741935483870968
4318,1.5741935483870968
4319,1.5741935483870968
4320,1.570967741935484
4321,1.570967741935484
4322,1.570967741935484
4323,1.5774193548387097
4324,1.5838709677419356
4325,1.5838709677419356
4326,1.5774193548387097
4327,1.5774193548387097
4328,1.5677419354838709
4329,1.5580645161290323
4330,1.5516129032258064
4331,1.5580645161290323
4332,1.570967741935484
4333,1.5774193548387097
4334,1.5838709677419356
4335,1.5870967741935484
4336,1.5838709677419356
4337,1.5806451612903225
4338,1.5774193548387097
4339,1.5806451612903225
4340,1.5870967741935484
4341,1.5935483870967742
4342,1.5935483870967742
4343,1.5935483870967742
4344,1.5903225806451613
4345,1.5838709677419356
4346,1.570967741935484
4347,1.5677419354838709
4348,1.5741935483870968
4349,1.5838709677419356
4350,1.5870967741935484
4351,1.5935483870967742
4352,1.5935483870967742
4353,1.5903225806451613
4354,1.5870967741935484
4355,1.5870967741935484
4356,1.5903225806451613
4357,1.5935483870967742
4358,1.6
4359,1.6
4360,1.596774193548387
4361,1.5935483870967742
4362,1.5870967741935484
4363,1.5838709677419356
4364,1.5838709677419356
4365,1.5903225806451613
4366,1.6
4367,1.603225806451613
4368,1.6096774193548387
4369,1.6096774193548387
4370,1.6096774193548387
4371,1.6096774193548387
4372,1.6064516129032258
4373,1.6096774193548387
4374,1.6161290322580646
4375,1.6193548387096774
4376,1.6193548387096774
4377,1.6161290322580646
4378,1.6096774193548387
4379,1.6
4380,1.596774193548387
4381,1.6
4382,1.6129032258064515
4383,1.6225806451612903
4384,1.6258064516129032
4385,1.632258064516129
4386,1.6290322580645162
4387,1.6258064516129032
4388,1.6225806451612903
4389,1.6161290322580646
4390,1.6225806451612903
4391,1.6258064516129032
4392,1.6258064516129032
4393,1.6258064516129032
4394,1.6225806451612903
4395,1.6129032258064515
4396,1.6064516129032258
4397,1.603225806451613
4398,1.6096774193548387
4399,1.6161290322580646
4400,1.6225806451612903
4401,1.6258064516129032
4402,1.6258064516129032
4403,1.6225806451612903
4404,1.6129032258064515
4405,1.6096774193548387
4406,1.6129032258064515
4407,1.6258064516129032
4408,1.6290322580645162
4409,1.6258064516129032
4410,1.6225806451612903
4411,1.6193548387096774
4412,1.6096774193548387
4413,1.6064516129032258
4414,1.6064516129032258
4415,1.6161290322580646
4416,1.6258064516129032
4417,1.6258064516129032
4418,1.6290322580645162
4419,1.632258064516129
4420,1.6290322580645162
4421,1.6258064516129032
4422,1.6225806451612903
4423,1.6258064516129032
4424,1.6290322580645162
4425,1.6290322580645162
4426,1.6258064516129032
4427,1.6225806451612903
4428,1.6161290322580646
4429,1.6064516129032258
4430,1.6
4431,1.6064516129032258
4432,1.6161290322580646
4433,1.6225806451612903
4434,1.6225806451612903
4435,1.6258064516129032
4436,1.6258064516129032
4437,1.6258064516129032
4438,1.6225806451612903
4439,1.6193548387096774
4440,1.6258064516129032
4441,1.635483870967742
4442,1.632258064516129
4443,1.6258064516129032
4444,1.6225806451612903
4445,1.6161290322580646
4446,1.6064516129032258
4447,1.6
4448,1.6096774193548387
4449,1.6193548387096774
4450,1.6258064516129032
4451,1.6290322580645162
4452,1.6290322580645162
4453,1.6258064516129032
4454,1.6258064516129032
4455,1.6258064516129032
4456,1.6258064516129032
4457,1.6290322580645162
4458,1.635483870967742
4459,1.635483870967742
4460,1.635483870967742
4461,1.6258064516129032
4462,1.6193548387096774
4463,1.6129032258064515
4464,1.6129032258064515
4465,1.6225806451612903
4466,1.632258064516129
4467,1.6387096774193548
4468,1.6387096774193548
4469,1.6387096774193548
4470,1.635483870967742
4471,1.6258064516129032
4472,1.6225806451612903
4473,1.6258064516129032
4474,1.6290322580645162
4475,1.6290322580645162
4476,1.6290322580645162
4477,1.6290322580645162
4478,1.6193548387096774
4479,1.6129032258064515
4480,1.6064516129032258
4481,1.6096774193548387
4482,1.6193548387096774
4483,1.6258064516129032
4484,1.6258064516129032
4485,1.6290322580645162
4486,1.6258064516129032
4487,1.6225806451612903
4488,1.6225806451612903
4489,1.6225806451612903
4490,1.6290322580645162
4491,1.6290322580645162
4492,1.6258064516129032
4493,1.6225806451612903
4494,1.6193548387096774
4495,1.6096774193548387
4496,1.6
4497,1.6
4498,1.6064516129032258
4499,1.6161290322580646
4500,1.6225806451612903
4501,1.6290322580645162
4502,1.6290322580645162
4503,1.6258064516129032
4504,1.6258064516129032
4505,1.6258064516129032
4506,1.6258064516129032
4507,1.635483870967742
4508,1.635483870967742
4509,1.632258064516129
4510,1.6290322580645162
4511,1.6225806451612903
4512,1.6129032258064515
4513,1.603225806451613
4514,1.603225806451613
4515,1.6161290322580646
4516,1.6225806451612903
4517,1.6258064516129032
4518,1.6290322580645162
4519,1.632258064516129
4520,1.6258064516129032
4521,1.6258064516129032
4522,1.6258064516129032
4523,1.6258064516129032
4524,1.6290322580645162
4525,1.6290322580645162
4526,1.6258064516129032
4527,1.6258064516129032
4528,1.6225806451612903
4529,1.6096774193548387
4530,1.603225806451613
4531,1.6096774193548387
4532,1.6193548387096774
4533,1.6258064516129032
4534,1.632258064516129
4535,1.635483870967742
4536,1.6387096774193548
4537,1.635483870967742
4538,1.6258064516129032
4539,1.6258064516129032
4540,1.6290322580645162
4541,1.635483870967742
4542,1.6387096774193548
4543,1.635483870967742
4544,1.632258064516129
4545,1.6258064516129032
4546,1.6161290322580646
4547,1.6129032258064515
4548,1.6225806451612903
4549,1.6258064516129032
4550,1.635483870967742
4551,1.6387096774193548
4552,1.6387096774193548
4553,1.6387096774193548
4554,1.632258064516129
4555,1.6290322580645162
4556,1.632258064516129
4557,1.6387096774193548
4558,1.6419354838709677
4559,1.6419354838709677
4560,1.635483870967742
4561,1.6290322580645162
4562,1.6193548387096774
4563,1.6096774193548387
4564,1.6096774193548387
4565,1.6225806451612903
4566,1.632258064516129
4567,1.6387096774193548
4568,1.6387096774193548
4569,1.6387096774193548
4570,1.6387096774193548
4571,1.632258064516129
4572,1.6290322580645162
4573,1.632258064516129
4574,1.6387096774193548
4575,1.6387096774193548
4576,1.635483870967742
4577,1.632258064516129
4578,1.6258064516129032
4579,1.6193548387096774
4580,1.6129032258064515
4581,1.6193548387096774
4582,1.6258064516129032
4583,1.6290322580645162
4584,1.635483870967742
4585,1.6387096774193548
4586,1.6387096774193548
4587,1.635483870967742
4588,1.6290322580645162
4589,1.6258064516129032
4590,1.6290322580645162
4591,1.632258064516129
4592,1.632258064516129
4593,1.6290322580645162
4594,1.6258064516129032
4595,1.6161290322580646
4596,1.6064516129032258
4597,1.6
4598,1.6096774193548387
4599,1.6193548387096774
4600,1.6258064516129032
4601,1.6290322580645162
4602,1.632258064516129
4603,1.632258064516129
4604,1.6290322580645162
4605,1.6258064516129032
4606,1.6290322580645162
4607,1.635483870967742
4608,1.635483870967742
4609,1.632258064516129
4610,1.6258064516129032
4611,1.6193548387096774
4612,1.6096774193548387
4613,1.6
4614,1.6
4615,1.6096774193548387
4616,1.6193548387096774
4617,1.6225806451612903
4618,1.6258064516129032
4619,1.6290322580645162
4620,1.6258064516129032
4621,1.6225806451612903
4622,1.6225806451612903
4623,1.6258064516129032
4624,1.635483870967742
4625,1.635483870967742
4626,1.6290322580645162
4627,1.6258064516129032
4628,1.6225806451612903
4629,1.6129032258064515
4630,1.603225806451613
4631,1.6064516129032258
4632,1.6161290322580646
4633,1.6258064516129032
4634,1.6290322580645162
4635,1.632258064516129
4636,1.632258064516129
4637,1.6290322580645162
4638,1.6258064516129032
4639,1.6258064516129032
4640,1.632258064516129
4641,1.6387096774193548
4642,1.6387096774193548
4643,1.6387096774193548
4644,1.632258064516129
4645,1.6258064516129032
4646,1.6161290322580646
4647,1.6096774193548387
4648,1.6161290322580646
4649,1.6258064516129032
4650,1.632258064516129
4651,1.632258064516129
4652,1.635483870967742
4653,1.632258064516129
4654,1.6258064516129032
4655,1.6258064516129032
4656,1.6290322580645162
4657,1.635483870967742
4658,1.6387096774193548
4659,1.635483870967742
4660,1.632258064516129
4661,1.6258064516129032
4662,1.6193548387096774
4663,1.6096774193548387
4664,1.6096774193548387
4665,1.6161290322580646
4666,1.6258064516129032
4667,1.6290322580645162
4668,1.6290322580645162
4669,1.632258064516129
4670,1.6290322580645162
4671,1.6258064516129032
4672,1.6225806451612903
4673,1.6258064516129032
4674,1.6290322580645162
4675,1.632258064516129
4676,1.6290322580645162
4677,1.6258064516129032
4678,1.6193548387096774
4679,1.6129032258064515
4680,1.6096774193548387
4681,1.6096774193548387
4682,1.6225806451612903
4683,1.6290322580645162
4684,1.635483870967742
4685,1.6419354838709677
4686,1.6419354838709677
4687,1.6387096774193548
4688,1.632258064516129
4689,1.635483870967742
4690,1.6387096774193548
4691,1.6387096774193548
4692,1.635483870967742
4693,1.632258064516129
4694,1.6290322580645162
4695,1.6258064516129032
4696,1.6193548387096774
4697,1.6129032258064515
4698,1.6225806451612903
4699,1.632258064516129
4700,1.6419354838709677
4701,1.6451612903225807
4702,1.6483870967741936
4703,1.6483870967741936
4704,1.6451612903225807
4705,1.6387096774193548
4706,1.6387096774193548
4707,1.6483870967741936
4708,1.6516129032258065
4709,1.6516129032258065
4710,1.6516129032258065
4711,1.6451612903225807
4712,1.6387096774193548
4713,1.6290322580645162
4714,1.6258064516129032
4715,1.632258064516129
4716,1.6419354838709677
4717,1.6451612903225807
4718,1.6483870967741936
4719,1.6451612903225807
4720,1.6419354838709677
4721,1.6387096774193548
4722,1.635483870967742
4723,1.635483870967742
4724,1.6419354838709677
4725,1.6387096774193548
4726,1.6387096774193548
4727,1.635483870967742
4728,1.6290322580645162
4729,1.6258064516129032
4730,1.6193548387096774
4731,1.6258064516129032
4732,1.635483870967742
4733,1.6483870967741936
4734,1.6516129032258065
4735,1.6580645161290322
4736,1.6612903225806452
4737,1.6580645161290322
4738,1.6548387096774193
4739,1.6548387096774193
4740,1.6612903225806452
4741,1.6612903225806452
4742,1.664516129032258
4743,1.6612903225806452
4744,1.6548387096774193
4745,1.6516129032258065
4746,1.6451612903225807
4747,1.6419354838709677
4748,1.6516129032258065
4749,1.6580645161290322
4750,1.667741935483871
4751,1.667741935483871
4752,1.6709677419354838
4753,1.6709677419354838
4754,1.6709677419354838
4755,1.664516129032258
4756,1.664516129032258
4757,1.6709677419354838
4758,1.6741935483870967
4759,1.6709677419354838
4760,1.667741935483871
4761,1.6612903225806452
4762,1.6516129032258065
4763,1.6419354838709677
4764,1.6387096774193548
4765,1.6419354838709677
4766,1.6483870967741936
4767,1.6483870967741936
4768,1.6483870967741936
4769,1.6483870967741936
4770,1.6451612903225807
4771,1.6387096774193548
4772,1.632258064516129
4773,1.632258064516129
4774,1.632258064516129
4775,1.635483870967742
4776,1.6290322580645162
4777,1.6258064516129032
4778,1.6193548387096774
4779,1.6096774193548387
4780,1.603225806451613
4781,1.6064516129032258
4782,1.6193548387096774
4783,1.6290322580645162
4784,1.635483870967742
4785,1.635483870967742
4786,1.635483870967742
4787,1.632258064516129
4788,1.6258064516129032
4789,1.6225806451612903
4790,1.6258064516129032
4791,1.6290322580645162
4792,1.632258064516129
4793,1.6258064516129032
4794,1.6225806451612903
4795,1.6161290322580646
4796,1.6096774193548387
4797,1.603225806451613
4798,1.6096774193548387
4799,1.6193548387096774
4800,1.6258064516129032
4801,1.6258064516129032
4802,1.6290322580645162
4803,1.6290322580645162
4804,1.6225806451612903
4805,1.6193548387096774
4806,1.6225806451612903
4807,1.6290322580645162
4808,1.6290322580645162
4809,1.6258064516129032
4810,1.6225806451612903
4811,1.6193548387096774
4812,1.6096774193548387
4813,1.603225806451613
4814,1.6
4815,1.6096774193548387
4816,1.6193548387096774
4817,1.6258064516129032
4818,1.6290322580645162
4819,1.6290322580645162
4820,1.6258064516129032
4821,1.6225806451612903
4822,1.6193548387096774
4823,1.6258064516129032
4824,1.6290322580645162
4825,1.632258064516129
4826,1.6258064516129032
4827,1.6225806451612903
4828,1.6193548387096774
4829,1.6096774193548387
4830,1.6
4831,1.603225806451613
4832,1.6096774193548387
4833,1.6193548387096774
4834,1.6258064516129032
4835,1.6290322580645162
4836,1.6290322580645162
4837,1.6258064516129032
4838,1.6258064516129032
4839,1.6193548387096774
4840,1.6290322580645162
4841,1.632258064516129
4842,1.632258064516129
4843,1.6290322580645162
4844,1.6258064516129032
4845,1.6161290322580646
4846,1.6096774193548387
4847,1.6064516129032258
4848,1.6096774193548387
4849,1.6193548387096774
4850,1.6258064516129032
4851,1.635483870967742
4852,1.635483870967742
4853,1.632258064516129
4854,1.6290322580645162
4855,1.6258064516129032
4856,1.6258064516129032
4857,1.6290322580645162
4858,1.6290322580645162
4859,1.6225806451612903
4860,1.6193548387096774
4861,1.6161290322580646
4862,1.6064516129032258
4863,1.6
4864,1.6
4865,1.6129032258064515
4866,1.6258064516129032
4867,1.6451612903225807
4868,1.6612903225806452
4869,1.6741935483870967
4870,1.6838709677419355
4871,1.696774193548387
4872,1.7129032258064516
4873,1.732258064516129
4874,1.7516129032258065
4875,1.7806451612903227
4876,1.7967741935483872
4877,1.8096774193548386
4878,1.8161290322580645
4879,1.8161290322580645
4880,1.8193548387096774
4881,1.8290322580645162
4882,1.832258064516129
4883,1.835483870967742
4884,1.832258064516129
4885,1.8258064516129031
4886,1.8161290322580645
4887,1.803225806451613
4888,1.7903225806451613
4889,1.7741935483870968
4890,1.770967741935484
4891,1.764516129032258
4892,1.764516129032258
4893,1.7548387096774194
4894,1.7483870967741935
4895,1.735483870967742
4896,1.7225806451612904
4897,1.706451612903226
4898,1.7032258064516128
4899,1.7
4900,1.696774193548387
4901,1.6870967741935483
4902,1.667741935483871
4903,1.6548387096774193
4904,1.635483870967742
4905,1.6193548387096774
4906,1.6064516129032258
4907,1.6
4908,1.596774193548387
4909,1.5806451612903225
4910,1.5548387096774194
4911,1.532258064516129
4912,1.5064516129032257
4913,1.4870967741935484
4914,1.4741935483870967
4915,1.4741935483870967
4916,1.4774193548387098
4917,1.4741935483870967
4918,1.4774193548387098
4919,1.4806451612903226
4920,1.4838709677419355
4921,1.4838709677419355
4922,1.4838709677419355
4923,1.4903225806451612
4924,1.5
4925,1.5064516129032257
4926,1.5064516129032257
4927,1.5096774193548388
4928,1.5129032258064516
4929,1.5096774193548388
4930,1.5064516129032257
4931,1.5129032258064516
4932,1.5290322580645161
4933,1.5451612903225806
4934,1.5516129032258064
4935,1.564516129032258
4936,1.5741935483870968
4937,1.5741935483870968
4938,1.5741935483870968
4939,1.5774193548387097
4940,1.5838709677419356
4941,1.5935483870967742
4942,1.596774193548387
4943,1.596774193548387
4944,1.596774193548387
4945,1.5935483870967742
4946,1.5903225806451613
4947,1.5838709677419356
4948,1.5903225806451613
4949,1.6
4950,1.6096774193548387
4951,1.6193548387096774
4952,1.6225806451612903
4953,1.6225806451612903
4954,1.6225806451612903
4955,1.6258064516129032
4956,1.6290322580645162
4957,1.635483870967742
4958,1.6419354838709677
4959,1.6451612903225807
4960,1.6419354838709677
4961,1.6387096774193548
4962,1.635483870967742
4963,1.6258064516129032
4964,1.6258064516129032
4965,1.632258064516129
4966,1.6419354838709677
4967,1.6483870967741936
4968,1.6516129032258065
4969,1.6516129032258065
4970,1.6516129032258065
4971,1.6483870967741936
4972,1.6451612903225807
4973,1.6483870967741936
