0;520
1;519
2;520
3;522
4;523
5;522
6;520
7;518
8;515
9;514
10;515
11;518
12;521
13;523
14;525
15;525
0;524
1;522
2;522
3;523
4;525
5;524
6;523
7;521
8;519
9;516
10;515
11;517
12;520
13;523
14;525
15;526
0;525
1;524
2;522
3;522
4;524
5;525
6;524
7;523
8;521
9;519
10;516
11;516
12;519
13;522
14;524
15;525
0;526
1;525
2;524
3;524
4;524
5;526
6;526
7;526
8;524
9;521
10;519
11;516
12;517
13;520
14;523
15;525
0;526
1;527
2;526
3;524
4;524
5;526
6;527
7;527
8;526
9;525
10;522
11;519
12;518
13;520
14;524
15;527
0;528
1;529
2;529
3;528
4;527
5;527
6;529
7;530
8;529
9;529
10;527
11;524
12;521
13;521
14;523
15;527
0;529
1;530
2;531
3;530
4;529
5;528
6;530
7;532
8;532
9;532
10;531
11;529
12;526
13;524
14;525
15;528
0;530
1;532
2;534
3;534
4;532
5;530
6;530
7;531
8;532
9;532
10;531
11;529
12;527
13;523
14;522
15;524
0;526
1;529
2;530
3;530
4;529
5;527
6;525
7;525
8;527
9;527
10;526
11;524
12;521
13;517
14;514
15;513
0;517
1;519
2;521
3;521
4;520
5;519
6;516
7;515
8;514
9;514
10;514
11;512
12;510
13;506
14;502
15;499
0;498
1;501
2;503
3;504
4;504
5;504
6;502
7;499
8;498
9;499
10;499
11;497
12;496
13;493
14;489
15;486
0;484
1;486
2;488
3;489
4;491
5;491
6;489
7;487
8;486
9;487
10;489
11;489
12;488
13;486
14;483
15;480
0;477
1;477
2;480
3;483
4;486
5;487
6;487
7;485
8;484
9;483
10;484
11;485
12;486
13;485
14;484
15;481
0;479
1;476
2;478
3;481
4;484
5;486
6;487
7;487
8;485
9;484
10;484
11;486
12;488
13;487
14;487
15;484
0;482
1;479
2;477
3;480
4;483
5;486
6;487
7;487
8;487
9;487
10;486
11;487
12;488
13;489
14;489
15;487
0;486
1;483
2;482
3;482
4;485
5;487
6;489
7;490
8;491
9;489
10;487
11;487
12;488
13;490
14;490
15;489
0;488
1;485
2;483
3;481
4;482
5;485
6;488
7;490
8;491
9;492
10;491
11;490
12;490
13;491
14;493
15;494
0;492
1;491
2;488
3;486
4;485
5;488
6;492
7;495
8;497
9;497
10;497
11;496
12;495
13;495
14;497
15;499
0;499
1;497
2;496
3;493
4;490
5;490
6;493
7;496
8;498
9;500
10;500
11;499
12;497
13;496
14;497
15;499
0;499
1;498
2;498
3;496
4;494
5;492
6;494
7;497
8;500
9;502
10;503
11;503
12;502
13;502
14;502
15;504
0;504
1;503
2;502
3;500
4;497
5;495
6;493
7;496
8;499
9;502
10;503
11;504
12;503
13;502
14;501
15;502
0;503
1;504
2;504
3;503
4;501
5;498
6;495
7;496
8;499
9;502
10;503
11;505
12;505
13;504
14;503
15;502
0;503
1;504
2;505
3;505
4;504
5;501
6;498
7;495
8;496
9;499
10;502
11;503
12;504
13;505
14;504
15;503
0;503
1;504
2;505
3;504
4;503
5;502
6;499
7;495
8;494
9;496
10;499
11;501
12;503
13;504
14;504
15;503
0;503
1;504
2;505
3;506
4;505
5;504
6;501
7;498
8;495
9;496
10;499
11;502
12;504
13;505
14;506
15;505
0;503
1;503
2;504
3;505
4;505
5;505
6;504
7;501
8;497
9;496
10;497
11;500
12;503
13;504
14;505
15;505
0;504
1;503
2;503
3;505
4;506
5;506
6;505
7;503
8;500
9;498
10;497
11;500
12;503
13;504
14;505
15;506
0;505
1;504
2;503
3;503
4;505
5;506
6;505
7;504
8;503
9;500
10;497
11;498
12;501
13;504
14;506
15;508
0;508
1;508
2;505
3;504
4;506
5;508
6;508
7;507
8;505
9;503
10;500
11;498
12;499
13;503
14;505
15;507
0;508
1;508
2;507
3;505
4;505
5;507
6;508
7;508
8;506
9;504
10;502
11;499
12;498
13;500
14;504
15;506
0;508
1;508
2;508
3;507
4;506
5;507
6;509
7;510
8;509
9;507
10;505
11;502
12;499
13;499
14;501
15;504
0;506
1;508
2;508
3;507
4;507
5;506
6;506
7;508
8;508
9;507
10;505
11;502
12;499
13;497
14;499
15;503
0;505
1;507
2;508
3;508
4;507
5;505
6;506
7;508
8;509
9;508
10;507
11;505
12;502
13;499
14;498
15;500
0;503
1;505
2;507
3;508
4;508
5;507
6;506
7;506
8;507
9;508
10;508
11;507
12;505
13;502
14;500
15;501
0;504
1;507
2;509
3;509
4;510
5;509
6;507
7;507
8;508
9;510
10;510
11;508
12;507
13;504
14;501
15;499
0;501
1;504
2;508
3;509
4;510
5;511
6;510
7;509
8;510
9;512
10;514
11;514
12;513
13;512
14;509
15;507
0;508
1;511
2;514
3;516
4;518
5;519
6;518
7;516
8;515
9;516
10;518
11;517
12;516
13;515
14;512
15;509
0;505
1;505
2;507
3;510
4;511
5;512
6;512
7;510
8;508
9;507
10;508
11;508
12;508
13;506
14;504
15;501
0;497
1;494
2;496
3;499
4;502
5;504
6;504
7;504
8;503
9;502
10;502
11;504
12;506
13;505
14;503
15;501
0;498
1;495
2;494
3;497
4;501
5;503
6;504
7;504
8;504
9;502
10;500
11;502
12;503
13;504
14;504
15;503
0;500
1;497
2;495
3;496
4;499
5;502
6;503
7;504
8;504
9;503
10;501
11;500
12;502
13;503
14;504
15;502
0;501
1;498
2;495
3;494
4;496
5;499
6;502
7;503
8;504
9;504
10;502
11;501
12;501
13;504
14;505
15;506
0;504
1;503
2;500
3;497
4;497
5;501
6;504
7;506
8;508
9;508
10;508
11;508
12;507
13;507
14;509
15;511
0;512
1;513
2;513
3;512
4;512
5;515
6;521
7;528
8;534
9;539
10;542
11;543
12;545
13;548
14;551
15;555
0;555
1;551
2;544
3;536
4;527
5;520
6;517
7;514
8;511
9;508
10;505
11;503
12;499
13;496
14;494
15;491
0;487
1;481
2;474
3;467
4;460
5;455
6;454
7;456
8;459
9;460
10;459
11;458
12;455
13;452
14;451
15;452
0;454
1;455
2;455
3;455
4;455
5;454
6;454
7;457
8;463
9;469
10;474
11;477
12;480
13;480
14;482
15;484
0;488
1;492
2;494
3;495
4;496
5;495
6;494
7;494
8;497
9;502
10;506
11;509
12;512
13;512
14;512
15;512
0;513
1;515
2;517
3;518
4;517
5;515
6;512
7;509
8;509
9;512
10;515
11;518
12;519
13;521
14;521
15;520
0;519
1;521
2;523
3;524
4;523
5;522
6;519
7;515
8;513
9;514
10;518
11;521
12;522
13;524
14;524
15;522
0;521
1;521
2;522
3;522
4;522
5;521
6;520
7;518
8;515
9;513
10;515
11;518
12;521
13;523
14;524
15;524
0;522
1;521
2;522
3;523
4;525
5;524
6;523
7;521
8;518
9;515
10;516
11;519
12;522
13;524
14;526
15;527
0;526
1;525
2;525
3;525
4;526
5;527
6;526
7;525
8;522
9;519
10;518
11;518
12;521
13;525
14;527
15;527
0;527
1;526
2;525
3;526
4;527
5;528
6;528
7;527
8;525
9;521
10;519
11;517
12;520
13;523
14;526
15;527
0;527
1;527
2;526
3;525
4;526
5;527
6;528
7;527
8;526
9;524
10;522
11;519
12;518
13;521
14;524
15;527
0;529
1;530
2;528
3;527
4;527
5;528
6;529
7;529
8;527
9;526
10;524
11;522
12;520
13;521
14;525
15;528
0;529
1;531
2;531
3;530
4;529
5;529
6;530
7;532
8;532
9;530
10;528
11;525
12;523
13;522
14;524
15;528
0;530
1;531
2;532
3;532
4;531
5;529
6;530
7;530
8;531
9;529
10;528
11;526
12;523
13;519
14;519
15;522
0;524
1;526
2;528
3;528
4;527
5;526
6;525
7;525
8;525
9;525
10;524
11;521
12;518
13;514
14;512
15;513
0;515
1;517
2;518
3;518
4;517
5;515
6;513
7;512
8;512
9;513
10;512
11;511
12;508
13;504
14;499
15;497
0;499
1;501
2;502
3;503
4;502
5;502
6;499
7;496
8;495
9;496
10;496
11;494
12;492
13;490
14;486
15;483
0;482
1;484
2;487
3;489
4;489
5;489
6;487
7;486
8;486
9;486
10;487
11;487
12;486
13;483
14;481
15;478
0;475
1;477
2;480
3;483
4;484
5;484
6;484
7;483
8;482
9;483
10;484
11;486
12;485
13;484
14;482
15;479
0;476
1;475
2;478
3;480
4;482
5;483
6;484
7;484
8;483
9;481
10;483
11;484
12;486
13;485
14;483
15;481
0;478
1;476
2;476
3;479
4;482
5;484
6;486
7;487
8;486
9;485
10;484
11;486
12;487
13;487
14;487
15;486
0;484
1;481
2;479
3;481
4;485
5;487
6;488
7;489
8;489
9;488
10;488
11;488
12;490
13;492
14;491
15;489
0;488
1;487
2;484
3;483
4;486
5;489
6;492
7;494
8;495
9;495
10;494
11;493
12;494
13;495
14;496
15;495
0;495
1;492
2;489
3;486
4;487
5;490
6;493
7;495
8;496
9;497
10;496
11;495
12;494
13;496
14;497
15;497
0;497
1;495
2;493
3;490
4;487
5;489
6;492
7;495
8;496
9;498
10;498
11;497
12;496
13;496
14;498
15;500
0;500
1;499
2;497
3;495
4;492
5;491
6;494
7;497
8;499
9;501
10;502
11;502
12;500
13;499
14;500
15;502
0;503
1;502
2;500
3;499
4;496
5;493
6;493
7;496
8;500
9;502
10;503
11;504
12;503
13;502
14;502
15;503
0;505
1;504
2;504
3;502
4;498
5;495
6;494
7;496
8;499
9;502
10;503
11;504
12;504
13;502
14;501
15;501
0;503
1;505
2;505
3;504
4;501
5;498
6;495
7;494
8;497
9;500
10;503
11;505
12;505
13;504
14;504
15;502
0;504
1;504
2;505
3;505
4;504
5;502
6;498
7;495
8;496
9;499
10;503
11;504
12;506
13;506
14;505
15;504
0;504
1;505
2;507
3;506
4;506
5;504
6;501
7;497
8;496
9;497
10;501
11;504
12;505
13;506
14;505
15;504
0;503
1;503
2;505
3;505
4;505
5;504
6;503
7;499
8;497
9;496
10;499
11;502
12;504
13;505
14;505
15;505
0;504
1;504
2;505
3;506
4;507
5;506
6;504
7;502
8;499
9;496
10;497
11;499
12;503
13;504
14;506
15;506
0;505
1;504
2;503
3;505
4;507
5;507
6;505
7;504
8;501
9;498
10;496
11;498
12;501
13;504
14;505
15;506
0;506
1;504
2;503
3;503
4;504
5;505
6;504
7;503
8;501
9;498
10;496
11;496
12;499
13;503
14;505
15;506
0;508
1;507
2;506
3;505
4;506
5;508
6;508
7;507
8;505
9;504
10;500
11;498
12;498
13;502
14;505
15;506
0;508
1;508
2;507
3;506
4;505
5;507
6;509
7;508
8;507
9;505
10;502
11;499
12;497
13;499
14;502
15;505
0;507
1;508
2;507
3;505
4;503
5;504
6;505
7;506
8;506
9;505
10;503
11;500
12;497
13;496
14;499
15;503
0;504
1;505
2;505
3;505
4;504
5;504
6;504
7;507
8;508
9;507
10;505
11;502
12;499
13;497
14;498
15;501
0;504
1;506
2;508
3;508
4;507
5;506
6;505
7;507
8;509
9;509
10;508
11;506
12;504
13;500
14;499
15;501
0;504
1;508
2;509
3;510
4;510
5;509
6;508
7;508
8;510
9;511
10;510
11;509
12;507
13;504
14;500
15;499
0;503
1;506
2;509
3;510
4;511
5;511
6;510
7;509
8;510
9;512
10;513
11;513
12;513
13;512
14;509
15;507
0;508
1;512
2;515
3;516
4;519
5;519
6;518
7;516
8;516
9;517
10;518
11;517
12;515
13;512
14;509
15;505
0;503
1;504
2;506
3;509
4;510
5;510
6;510
7;507
8;505
9;504
10;505
11;505
12;504
13;503
14;500
15;497
0;493
1;493
2;496
3;499
4;501
5;502
6;503
7;503
8;502
9;500
10;501
11;502
12;503
13;502
14;500
15;498
0;495
1;492
2;494
3;497
4;501
5;502
6;503
7;503
8;502
9;501
10;500
11;502
12;503
13;502
14;501
15;499
0;496
1;493
2;492
3;494
4;498
5;501
6;502
7;503
8;503
9;502
10;500
11;501
12;503
13;504
14;504
15;502
0;501
1;498
2;496
3;496
4;498
5;502
6;504
7;505
8;506
9;506
10;505
11;504
12;504
13;506
14;506
15;506
0;505
1;503
2;499
3;497
4;499
5;503
6;507
7;509
8;510
9;511
10;509
11;508
12;508
13;510
14;513
15;514
0;515
1;515
2;514
3;514
4;516
5;521
6;528
7;534
8;540
9;544
10;546
11;548
12;550
13;552
14;556
15;556
0;553
1;547
2;540
3;531
4;523
5;517
6;514
7;512
8;508
9;506
10;504
11;501
12;498
13;495
14;492
15;488
0;482
1;475
2;467
3;461
4;455
5;452
6;453
7;455
8;456
9;456
10;455
11;455
12;452
13;451
14;451
15;454
0;456
1;456
2;456
3;456
4;456
5;455
6;455
7;460
8;465
9;471
10;476
11;479
12;481
13;482
14;483
15;486
0;490
1;494
2;495
3;496
4;496
5;495
6;494
7;496
8;500
9;504
10;508
11;511
12;512
13;513
14;512
15;512
0;514
1;516
2;517
3;516
4;515
5;513
6;510
7;509
8;512
9;516
10;519
11;521
12;523
13;524
14;523
15;521
0;521
1;523
2;524
3;523
4;523
5;521
6;518
7;515
8;513
9;516
10;519
11;521
12;522
13;523
14;523
15;521
0;521
1;521
2;523
3;523
4;523
5;521
6;519
7;517
8;514
9;515
10;519
11;521
12;523
13;524
14;524
15;523
0;523
1;522
2;523
3;525
4;525
5;524
6;523
7;520
8;518
9;515
10;516
11;519
12;521
13;523
14;524
15;524
0;523
1;522
2;523
3;524
4;525
5;524
6;523
7;521
8;518
9;514
10;513
11;516
12;519
13;521
14;523
15;524
0;524
1;524
2;523
3;524
4;526
5;526
6;525
7;524
8;523
9;520
10;517
11;517
12;520
13;523
14;524
15;527
0;527
1;527
2;525
3;524
4;525
5;526
6;526
7;525
8;524
9;521
10;519
11;517
12;519
13;522
14;525
15;527
0;528
1;527
2;527
3;526
4;526
5;528
6;530
7;530
8;529
9;527
10;524
11;521
12;520
13;524
14;527
15;530
0;532
1;533
2;533
3;531
4;531
5;531
6;533
7;534
8;534
9;532
10;530
11;527
12;524
13;524
14;527
15;531
0;534
1;535
2;536
3;534
4;533
5;531
6;532
7;533
8;532
9;531
10;528
11;526
12;522
13;519
14;520
15;524
0;527
1;527
2;529
3;528
4;526
5;524
6;524
7;526
8;527
9;526
10;524
11;522
12;518
13;515
14;512
15;515
0;518
1;519
2;521
3;520
4;519
5;516
6;514
7;514
8;514
9;514
10;512
11;510
12;507
13;503
14;498
15;497
0;499
1;502
2;502
3;502
4;501
5;499
6;497
7;496
8;496
9;497
10;496
11;495
12;493
13;490
14;486
15;482
0;483
1;485
2;487
3;488
4;488
5;487
6;486
7;484
8;483
9;486
10;487
11;487
12;486
13;483
14;480
15;477
0;476
1;479
2;481
3;483
4;485
5;486
6;485
7;484
8;483
9;484
10;485
11;486
12;485
13;484
14;482
15;478
0;476
1;477
2;480
3;483
4;485
5;486
6;486
7;484
8;483
9;483
10;485
11;486
12;486
13;485
14;484
15;481
0;479
1;478
2;480
3;484
4;487
5;489
6;490
7;489
8;488
9;487
10;487
11;488
12;489
13;489
14;488
15;487
0;483
1;481
2;480
3;483
4;487
5;489
6;491
7;492
8;491
9;489
10;489
11;489
12;491
13;492
14;491
15;490
0;487
1;484
2;482
3;483
4;487
5;490
6;492
7;493
8;494
9;493
10;492
11;492
12;493
13;495
14;495
15;494
0;492
1;489
2;486
3;484
4;486
5;490
6;493
7;494
8;496
9;497
10;495
11;494
12;494
13;496
14;497
15;497
0;496
1;494
2;491
3;488
4;487
5;491
6;494
7;496
8;498
9;499
10;499
11;498
12;497
13;498
14;500
15;500
0;500
1;499
2;496
3;492
4;489
5;491
6;494
7;497
8;499
9;502
10;502
11;502
12;501
13;501
14;502
15;503
0;503
1;502
2;500
3;498
4;495
5;494
6;496
7;499
8;501
9;503
10;505
11;505
12;505
13;503
14;503
15;504
0;505
1;504
2;503
3;501
4;498
5;495
6;495
7;497
8;501
9;504
10;505
11;506
12;504
13;503
14;502
15;503
0;504
1;505
2;504
3;504
4;501
5;498
6;495
7;496
8;499
9;502
10;503
11;504
12;504
13;504
14;503
15;503
0;504
1;505
2;505
3;504
4;502
5;500
6;497
7;496
8;498
9;501
10;503
11;505
12;507
13;506
14;505
15;504
0;504
1;506
2;507
3;507
4;506
5;504
6;502
7;498
8;498
9;500
10;504
11;506
12;507
13;508
14;506
15;504
0;503
1;504
2;506
3;507
4;506
5;505
6;503
7;499
8;497
9;497
10;501
11;504
12;506
13;506
14;507
15;505
0;504
1;504
2;505
3;507
4;508
5;506
6;505
7;501
8;497
9;496
10;498
11;501
12;503
13;505
14;507
15;506
0;505
1;504
2;505
3;507
4;508
5;508
6;507
7;504
8;502
9;499
10;498
11;502
12;505
13;508
14;509
15;509
0;508
1;506
2;505
3;507
4;508
5;507
6;506
7;505
8;503
9;499
10;497
11;497
12;500
13;503
14;505
15;506
0;505
1;504
2;503
3;503
4;504
5;505
6;504
7;504
8;503
9;500
10;497
11;496
12;498
13;502
14;504
15;506
0;508
1;508
2;506
3;505
4;505
5;506
6;507
7;506
8;504
9;503
10;499
11;497
12;496
13;500
14;503
15;505
0;507
1;507
2;507
3;504
4;504
5;505
6;507
7;508
8;508
9;506
10;503
11;499
12;496
13;498
14;501
15;504
0;506
1;508
2;509
3;508
4;507
5;507
6;508
7;510
8;509
9;507
10;505
11;503
12;499
13;499
14;502
15;505
0;508
1;509
2;510
3;509
4;508
5;507
6;507
7;509
8;510
9;509
10;508
11;505
12;502
13;500
14;500
15;503
0;507
1;508
2;510
3;509
4;508
5;507
6;507
7;508
8;510
9;511
10;510
11;509
12;508
13;504
14;503
15;504
0;508
1;511
2;514
3;515
4;515
5;515
6;513
7;514
8;516
9;518
10;518
11;517
12;515
13;512
14;510
15;508
0;510
1;513
2;515
3;515
4;516
5;514
6;512
7;511
8;511
9;513
10;513
11;511
12;510
13;507
14;503
15;499
0;498
1;500
2;503
3;504
4;504
5;505
6;504
7;502
8;501
9;501
10;502
11;503
12;502
13;500
14;497
15;495
0;493
1;494
2;498
3;501
4;503
5;504
6;504
7;502
8;501
9;501
10;503
11;504
12;504
13;503
14;501
15;499
0;496
1;495
2;497
3;501
4;503
5;504
6;505
7;505
8;504
9;502
10;502
11;504
12;504
13;504
14;503
15;500
0;496
1;494
2;494
3;497
4;501
5;503
6;504
7;505
8;504
9;503
10;502
11;503
12;504
13;505
14;503
15;502
0;500
1;497
2;495
3;496
4;500
5;503
6;505
7;507
8;507
9;507
10;506
11;506
12;508
13;510
14;510
15;509
0;507
1;504
2;501
3;500
4;504
5;508
6;513
7;516
8;519
9;522
10;523
11;524
12;528
13;534
14;539
15;541
0;543
1;543
2;543
3;543
4;545
5;549
6;551
7;549
8;545
9;540
10;533
11;526
12;519
13;515
14;512
15;508
0;504
1;501
2;497
3;491
4;485
5;481
6;479
7;475
8;471
9;468
10;465
11;462
12;460
13;459
14;459
15;458
0;456
1;453
2;451
3;447
4;444
5;444
6;448
7;452
8;456
9;459
10;461
11;463
12;464
13;466
14;469
15;473
0;476
1;477
2;478
3;478
4;477
5;477
6;480
7;485
8;490
9;494
10;497
11;500
12;502
13;502
14;503
15;505
0;509
1;511
2;512
3;511
4;510
5;508
6;507
7;509
8;512
9;516
10;519
11;520
12;520
13;519
14;519
15;519
0;522
1;524
2;524
3;523
4;521
5;518
6;515
7;514
8;517
9;521
10;524
11;525
12;526
13;526
14;524
15;524
0;525
1;526
2;527
3;526
4;524
5;521
6;518
7;516
8;517
9;520
10;523
11;525
12;526
13;526
14;525
15;523
0;523
1;524
2;525
3;526
4;524
5;522
6;520
7;517
8;515
9;516
10;520
11;523
12;524
13;525
14;525
15;523
0;521
1;522
2;524
3;525
4;525
5;524
6;522
7;519
8;515
9;514
10;518
11;521
12;523
13;524
14;526
15;525
0;524
1;524
2;524
3;526
4;527
5;526
6;524
7;522
8;519
9;515
10;516
11;519
12;522
13;524
14;524
15;525
0;524
1;523
2;523
3;524
4;526
5;526
6;525
7;524
8;521
9;519
10;517
11;519
12;523
13;525
14;527
15;528
0;528
1;527
2;527
3;527
4;528
5;528
6;528
7;527
8;526
9;523
10;520
11;519
12;523
13;526
14;528
15;530
0;531
1;531
2;530
3;529
4;531
5;532
6;532
7;531
8;530
9;528
10;525
11;522
12;524
13;527
14;531
15;533
0;534
1;534
2;533
3;532
4;531
5;532
6;535
7;534
8;533
9;531
10;528
11;525
12;523
13;524
14;528
15;530
0;532
1;533
2;531
3;530
4;528
5;528
6;529
7;530
8;528
9;527
10;524
11;520
12;517
13;516
14;518
15;521
0;523
1;524
2;524
3;523
4;519
5;518
6;518
7;519
8;519
9;517
10;515
11;512
12;507
13;503
14;502
15;504
0;506
1;507
2;507
3;507
4;504
5;502
6;501
7;501
8;502
9;499
10;497
11;495
12;491
13;487
14;485
15;487
0;489
1;491
2;492
3;492
4;491
5;489
6;487
7;488
8;489
9;489
10;488
11;486
12;484
13;481
14;478
15;477
0;480
1;482
2;484
3;486
4;486
5;484
6;482
7;481
8;482
9;483
10;484
11;483
12;482
13;480
14;477
15;474
0;476
1;478
2;481
3;483
4;484
5;484
6;483
7;481
8;481
9;483
10;485
11;485
12;484
13;483
14;481
15;478
0;476
1;478
2;481
3;484
4;486
5;487
6;487
7;486
8;486
9;487
10;488
11;490
12;489
13;488
14;486
15;483
0;480
1;480
2;483
3;487
4;488
5;490
6;491
7;490
8;489
9;487
10;489
11;491
12;492
13;490
14;489
15;487
0;484
1;481
2;482
3;486
4;489
5;491
6;493
7;494
8;492
9;490
10;490
11;492
12;492
13;492
14;492
15;491
0;489
1;486
2;485
3;487
4;491
5;494
6;496
7;496
8;496
9;496
10;495
11;496
12;497
13;499
14;499
15;497
0;496
1;492
2;488
3;488
4;492
5;495
6;497
7;499
8;500
9;499
10;497
11;497
12;499
13;500
14;501
15;500
0;499
1;496
2;494
3;491
4;492
5;496
6;499
7;500
8;502
9;503
10;502
11;501
12;501
13;502
14;504
15;503
0;501
1;499
2;496
3;494
4;492
5;495
6;499
7;501
8;502
9;503
10;502
11;501
12;500
13;501
14;503
15;504
0;503
1;502
2;500
3;497
4;495
5;494
6;497
7;501
8;503
9;504
10;505
11;504
12;503
13;501
14;503
15;506
0;506
1;504
2;503
3;500
4;497
5;495
6;496
7;500
8;503
9;504
10;505
11;506
12;504
13;502
14;502
15;504
0;505
1;505
2;504
3;503
4;501
5;499
6;497
7;499
8;503
9;506
10;507
11;508
12;507
13;506
14;505
15;505
0;508
1;509
2;508
3;507
4;504
5;501
6;498
7;498
8;501
9;504
10;507
11;507
12;508
13;507
14;506
15;505
0;506
1;508
2;509
3;509
4;506
5;504
6;500
7;498
8;499
9;503
10;505
11;507
12;508
13;508
14;507
15;505
0;505
1;507
2;507
3;507
4;506
5;504
6;502
7;499
8;499
9;501
10;504
11;506
12;508
13;508
14;508
15;505
0;504
1;505
2;507
3;508
4;508
5;506
6;504
7;501
8;498
9;498
10;502
11;505
12;506
13;507
14;507
15;506
0;504
1;504
2;505
3;507
4;508
5;506
6;504
7;501
8;499
9;496
10;497
11;502
12;505
13;507
14;508
15;507
0;506
1;504
2;504
3;505
4;507
5;506
6;505
7;503
8;499
9;496
10;496
11;498
12;502
13;504
14;505
15;507
0;506
1;504
2;504
3;504
4;506
5;507
6;506
7;505
8;503
9;500
10;497
11;496
12;499
13;502
14;504
15;505
0;506
1;505
2;504
3;503
4;504
5;505
6;506
7;504
8;503
9;500
10;497
11;495
12;497
13;500
14;503
15;505
0;506
1;507
2;505
3;504
4;505
5;507
6;509
7;508
8;506
9;505
10;502
11;499
12;498
13;500
14;504
15;507
0;508
1;510
2;509
3;508
4;507
5;507
6;508
7;509
8;509
9;507
10;504
11;502
12;499
13;499
14;503
15;508
0;510
1;512
2;513
3;513
4;512
5;512
6;514
7;516
8;516
9;516
10;515
11;512
12;509
13;508
14;509
15;512
0;515
1;516
2;517
3;516
4;514
5;513
6;512
7;513
8;514
9;513
10;512
11;509
12;505
13;500
14;499
15;501
0;503
1;506
2;507
3;507
4;506
5;504
6;503
7;503
8;504
9;505
10;503
11;501
12;499
13;495
14;492
15;492
0;496
1;499
2;501
3;501
4;502
5;500
6;499
7;499
8;500
9;501
10;502
11;501
12;499
13;497
14;494
15;491
0;492
1;496
2;499
3;500
4;501
5;500
6;499
7;497
8;498
9;500
10;502
11;502
12;500
13;499
14;496
15;493
0;492
1;495
2;498
3;500
4;502
5;503
6;503
7;502
8;500
9;502
10;504
11;505
12;504
13;503
14;500
15;498
0;495
1;496
2;499
3;502
4;503
5;504
6;504
7;502
8;502
9;503
10;505
11;507
12;508
13;507
14;506
15;504
0;501
1;499
2;502
3;505
4;508
5;511
6;513
7;515
8;515
9;515
10;518
11;521
12;525
13;528
14;530
15;532
0;533
1;533
2;535
3;540
4;546
5;551
6;554
7;554
8;550
9;544
10;538
11;533
12;529
13;525
14;519
15;512
0;505
1;499
2;494
3;494
4;495
5;495
6;492
7;487
8;482
9;474
10;467
11;463
12;463
13;463
14;463
15;460
0;456
1;451
2;446
3;443
4;443
5;446
6;449
7;452
8;455
9;455
10;456
11;457
12;460
13;463
14;467
15;470
0;472
1;472
2;471
3;470
4;471
5;476
6;481
7;486
8;490
9;493
10;494
11;495
12;497
13;500
14;503
15;506
0;508
1;508
2;508
3;506
4;504
5;505
6;510
7;514
8;516
9;519
10;520
11;519
12;519
13;518
14;519
15;521
0;521
1;521
2;520
3;518
4;515
5;513
6;515
7;518
8;521
9;523
10;524
11;525
12;523
13;521
14;521
15;522
0;524
1;523
2;521
3;520
4;517
5;513
6;512
7;516
8;519
9;523
10;524
11;525
12;524
13;523
14;522
15;522
0;524
1;525
2;524
3;524
4;521
5;518
6;514
7;515
8;519
9;522
10;524
11;524
12;524
13;523
14;522
15;521
0;523
1;524
2;524
3;523
4;521
5;519
6;516
7;513
8;515
9;519
10;522
11;524
12;525
13;525
14;524
15;523
0;523
1;524
2;525
3;525
4;524
5;523
6;520
7;517
8;516
9;518
10;522
11;523
12;525
13;526
14;525
15;524
0;522
1;523
2;524
3;524
4;524
5;523
6;521
7;518
8;516
9;517
10;520
11;523
12;524
13;526
14;526
15;525
0;524
1;525
2;526
3;528
4;529
5;527
6;526
7;523
8;520
9;518
10;520
11;525
12;527
13;529
14;531
15;531
0;529
1;528
2;529
3;531
4;532
5;531
6;530
7;529
8;525
9;522
10;523
11;526
12;529
13;531
14;532
15;534
0;533
1;531
2;530
3;531
4;533
5;534
6;534
7;531
8;529
9;526
10;523
11;524
12;527
13;530
14;531
15;532
0;532
1;530
2;528
3;529
4;530
5;532
6;531
7;530
8;528
9;524
10;521
11;519
12;520
13;523
14;525
15;526
0;527
1;526
2;524
3;522
4;521
5;522
6;522
7;521
8;518
9;515
10;511
11;507
12;506
13;508
14;510
15;511
0;512
1;512
2;511
3;508
4;507
5;506
6;507
7;506
8;504
9;502
10;498
11;494
12;490
13;490
14;492
15;495
0;496
1;496
2;495
3;493
4;491
5;491
6;491
7;492
8;491
9;488
10;486
11;483
12;479
13;477
14;479
15;482
0;483
1;485
2;486
3;485
4;484
5;482
6;483
7;484
8;485
9;484
10;483
11;481
12;479
13;476
14;475
15;477
0;480
1;483
2;484
3;484
4;483
5;482
6;481
7;482
8;483
9;484
10;483
11;482
12;480
13;477
14;475
15;476
0;479
1;482
2;484
3;486
4;486
5;485
6;484
7;484
8;486
9;487
10;487
11;485
12;484
13;481
14;479
15;477
0;480
1;483
2;487
3;489
4;489
5;489
6;488
7;487
8;489
9;491
10;492
11;492
12;490
13;488
14;486
15;483
0;482
1;486
2;489
3;491
4;493
5;494
6;493
7;492
8;492
9;493
10;495
11;496
12;495
13;494
14;492
15;489
0;486
1;488
2;492
3;494
4;496
5;498
6;497
7;497
8;496
9;495
10;497
11;499
12;499
13;498
14;497
15;494
0;491
1;489
2;492
3;495
4;498
5;499
6;500
7;500
8;499
9;498
10;498
11;500
12;502
13;502
14;500
15;498
0;496
1;494
2;494
3;496
4;499
5;501
6;503
7;504
8;503
9;502
10;501
11;502
12;503
13;503
14;502
15;501
0;498
1;495
2;493
3;494
4;497
5;500
6;503
7;504
8;505
9;505
10;503
11;502
12;503
13;505
14;505
15;503
0;501
1;498
2;495
3;494
4;497
5;500
6;504
7;505
8;505
9;505
10;504
11;503
12;504
13;506
14;507
15;506
0;505
1;504
2;501
3;498
4;498
5;501
6;504
7;506
8;507
9;507
10;506
11;505
12;504
13;505
14;507
15;508
0;506
1;504
2;500
3;497
4;496
5;497
6;500
7;504
8;506
9;507
10;508
11;507
12;505
13;505
14;506
15;508
0;507
1;506
2;504
3;500
4;498
5;497
6;500
7;504
8;506
9;507
10;509
11;508
12;506
13;505
14;505
15;507
0;508
1;508
2;506
3;504
4;501
5;497
6;496
7;500
8;504
9;505
10;507
11;507
12;506
13;505
14;504
15;505
0;506
1;506
2;505
3;503
4;500
5;497
6;494
7;495
8;498
9;501
10;503
11;503
12;504
13;502
14;501
15;502
0;504
1;504
2;503
3;502
4;500
5;497
6;495
7;494
8;497
9;500
10;502
11;504
12;505
13;504
14;503
15;502
0;502
1;504
2;505
3;504
4;502
5;501
6;498
7;495
8;495
9;498
10;501
11;503
12;504
13;504
14;504
15;502
0;501
1;503
2;504
3;504
4;504
5;503
6;500
7;497
8;496
9;497
10;500
11;504
12;505
13;506
14;506
15;505
0;504
1;505
2;506
3;508
4;508
5;506
6;504
7;501
8;497
9;496
10;498
11;501
12;505
13;507
14;507
15;507
0;505
1;504
2;504
3;505
4;506
5;505
6;504
7;503
8;500
9;496
10;497
11;500
12;504
13;506
14;508
15;509
0;508
1;508
2;508
3;510
4;511
5;512
6;512
7;510
8;508
9;504
10;502
11;504
12;508
13;510
14;511
15;512
0;512
1;510
2;508
3;507
4;509
5;510
6;509
7;508
8;506
9;503
10;500
11;499
12;501
13;505
14;508
15;510
0;511
1;511
2;511
3;510
4;511
5;512
6;513
7;513
8;512
9;511
10;509
11;505
12;506
13;510
14;514
15;517
0;518
1;518
2;516
3;514
4;513
5;514
6;515
7;515
8;514
9;513
10;511
11;507
12;505
13;506
14;509
15;510
0;511
1;512
2;511
3;508
4;507
5;507
6;508
7;508
8;508
9;507
10;505
11;501
12;497
13;495
14;497
15;499
0;502
1;503
2;504
3;504
4;503
5;502
6;503
7;504
8;505
9;504
10;503
11;501
12;498
13;494
14;494
15;497
0;500
1;502
2;504
3;504
4;503
5;501
6;499
7;501
8;503
9;503
10;503
11;502
12;498
13;495
14;493
15;495
0;497
1;500
2;502
3;503
4;503
5;502
6;500
7;500
8;502
9;503
10;503
11;501
12;499
13;496
14;493
15;492
0;495
1;499
2;502
3;504
4;504
5;504
6;502
7;500
8;501
9;502
10;504
11;502
12;501
13;500
14;497
15;495
0;496
1;500
2;504
3;507
4;508
5;507
6;507
7;506
8;505
9;507
10;509
11;511
12;511
13;512
14;512
15;511
0;511
1;516
2;524
3;531
4;536
5;540
6;543
7;544
8;546
9;548
10;552
11;555
12;553
13;548
14;540
15;532
0;524
1;517
2;514
3;512
4;510
5;508
6;506
7;504
8;500
9;497
10;495
11;491
12;487
13;479
14;471
15;463
0;456
1;452
2;451
3;455
4;456
5;456
6;456
7;454
8;452
9;450
10;450
11;452
12;454
13;455
14;455
15;455
0;455
1;454
2;454
3;458
4;464
5;469
6;473
7;477
8;479
9;480
10;481
11;483
12;487
13;491
14;492
15;493
0;494
1;493
2;492
3;494
4;499
5;504
6;508
7;511
8;512
9;512
10;512
11;512
12;513
13;515
14;516
15;515
0;515
1;514
2;511
3;509
4;510
5;513
6;517
7;518
8;520
9;521
10;521
11;520
12;519
13;522
14;524
15;524
0;524
1;523
2;520
3;517
4;515
5;518
6;520
7;523
8;524
9;525
10;525
11;524
12;523
13;523
14;525
15;527
0;526
1;525
2;523
3;520
4;517
5;515
6;518
7;521
8;524
9;525
10;526
11;526
12;524
13;524
14;525
15;526
0;526
1;525
2;524
3;521
4;518
5;514
6;515
7;518
8;521
9;523
10;524
11;524
12;523
13;522
14;521
15;523
0;524
1;524
2;523
3;521
4;518
5;515
6;513
7;516
8;520
9;523
10;524
11;525
12;525
13;524
14;523
15;523
0;525
1;527
2;526
3;525
4;523
5;519
6;517
7;515
8;518
9;521
10;523
11;524
12;525
13;525
14;524
15;523
0;524
1;526
2;526
3;525
4;524
5;522
6;519
7;517
8;518
9;522
10;525
11;527
12;529
13;531
14;529
15;528
0;528
1;530
2;531
3;531
4;531
5;529
6;526
7;523
8;521
9;524
10;527
11;530
12;531
13;532
14;532
15;532
0;531
1;531
2;533
3;535
4;534
5;533
6;531
7;527
8;524
9;523
10;527
11;530
12;532
13;534
14;535
15;534
0;532
1;531
2;531
3;532
4;532
5;531
6;529
7;527
8;524
9;521
10;521
11;524
12;527
13;529
14;530
15;529
0;527
1;526
2;525
3;526
4;527
5;527
6;525
7;522
8;519
9;515
10;512
11;514
12;516
13;518
14;519
15;519
0;518
1;516
2;513
3;513
4;514
5;514
6;512
7;509
8;506
9;502
10;498
11;496
12;498
13;500
14;502
15;502
0;502
1;501
2;499
3;497
4;497
5;498
6;497
7;496
8;492
9;489
10;485
11;482
12;483
13;486
14;488
15;489
0;490
1;490
2;489
3;487
4;485
5;486
6;487
7;487
8;486
9;484
10;481
11;478
12;476
13;478
14;481
15;484
0;486
1;487
2;486
3;485
4;483
5;483
6;485
7;486
8;486
9;484
10;483
11;480
12;477
13;476
14;479
15;483
0;485
1;487
2;487
3;487
4;486
5;485
6;487
7;489
8;489
9;488
10;487
11;484
12;481
13;479
14;480
15;483
0;486
1;488
2;490
3;489
4;488
5;487
6;487
7;488
8;491
9;491
10;489
11;487
12;485
13;482
14;481
15;483
0;487
1;490
2;492
3;493
4;493
5;492
6;491
7;491
8;493
9;494
10;493
11;492
12;489
13;487
14;483
15;483
0;486
1;489
2;492
3;494
4;495
5;495
6;494
7;493
8;494
9;496
10;496
11;495
12;494
13;492
14;488
15;486
0;487
1;491
2;495
3;496
4;498
5;499
6;497
7;496
8;496
9;499
10;500
11;500
12;499
13;498
14;495
15;491
0;490
1;492
2;496
3;499
4;500
5;501
6;501
7;499
8;498
9;499
10;501
11;503
12;502
13;500
14;499
15;496
0;492
1;492
2;496
3;499
4;501
5;503
6;503
7;502
8;500
9;499
10;500
11;501
12;502
13;501
14;500
15;497
0;494
1;492
2;494
3;497
4;501
5;503
6;503
7;503
8;502
9;501
10;501
11;503
12;504
13;504
14;504
15;501
0;499
1;495
2;494
3;497
4;500
5;503
6;505
7;505
8;505
9;503
10;502
11;502
12;503
13;504
14;503
15;502
0;500
1;496
2;494
3;493
4;496
5;500
6;503
7;504
8;505
9;504
10;503
11;502
12;504
13;504
14;504
15;504
0;502
1;499
2;496
3;494
4;496
5;499
6;503
7;505
8;507
9;506
10;504
11;503
12;503
13;504
14;506
15;505
0;504
1;502
2;499
3;497
4;495
5;497
6;500
7;504
8;505
9;506
10;505
11;504
12;502
13;504
14;505
15;506
0;506
1;504
2;502
3;499
4;495
5;496
6;499
7;502
8;505
9;506
10;507
11;505
12;504
13;504
14;505
15;507
0;507
1;506
2;505
3;502
4;499
5;496
6;498
7;501
8;505
9;507
10;508
11;508
12;506
13;504
14;504
15;505
0;507
1;506
2;504
3;502
4;499
5;496
6;494
7;497
8;500
9;503
10;504
11;506
12;506
13;505
14;504
15;504
0;505
1;506
2;505
3;504
4;501
5;498
6;496
7;496
8;498
9;502
10;504
11;506
12;507
13;506
14;505
15;504
0;505
1;506
2;507
3;505
4;504
5;501
6;497
7;495
8;496
9;499
10;501
11;503
12;504
13;505
14;504
15;503
0;503
1;505
2;507
3;508
4;506
5;504
6;502
7;499
8;497
9;500
10;503
11;505
12;507
13;508
14;508
15;506
0;505
1;505
2;507
3;508
4;507
5;505
6;504
7;500
8;499
9;498
10;502
11;505
12;507
13;509
14;510
15;509
0;508
1;507
2;508
3;509
4;508
5;507
6;505
7;503
8;500
9;498
10;499
11;503
12;506
13;508
14;509
15;509
0;508
1;507
2;507
3;510
4;511
5;511
6;510
7;509
8;506
9;504
10;504
11;507
12;511
13;514
14;515
15;517
0;517
1;515
2;515
3;515
4;518
5;518
6;517
7;515
8;513
9;509
10;506
11;506
12;509
13;512
14;513
15;513
0;512
1;511
2;510
3;508
4;509
5;510
6;509
7;507
8;505
9;502
10;497
11;495
12;496
13;499
14;502
15;503
0;504
1;504
2;502
3;501
4;501
5;502
6;503
7;503
8;501
9;499
10;496
11;493
12;492
13;495
14;499
15;501
0;503
1;504
2;504
3;502
4;501
5;502
6;504
7;505
8;504
9;502
10;500
11;498
12;495
13;495
14;499
15;502
0;503
1;504
2;504
3;503
4;501
5;501
6;503
7;503
8;503
9;502
10;500
11;498
12;495
13;493
14;495
15;499
0;502
1;504
2;505
3;505
4;504
5;502
6;503
7;504
8;506
9;505
10;504
11;503
12;499
13;496
14;495
15;499
0;503
1;505
2;507
3;508
4;508
5;507
6;506
7;507
8;508
9;509
10;508
11;508
12;505
13;504
14;503
15;506
0;512
1;518
2;523
3;526
4;529
5;530
6;532
7;535
8;540
9;544
10;546
11;548
12;550
13;548
14;545
15;541
0;539
1;537
2;534
3;530
4;526
5;520
6;514
7;508
8;506
9;505
10;505
11;502
12;497
13;491
14;483
15;474
0;467
1;463
2;463
3;463
4;463
5;463
6;462
7;458
8;456
9;455
10;454
11;453
12;451
13;450
14;449
15;447
0;446
1;448
2;452
3;458
4;462
5;466
6;468
7;470
8;471
9;473
10;478
11;481
12;483
13;484
14;484
15;484
0;484
1;484
2;488
3;494
4;499
5;503
6;505
7;507
8;507
9;507
10;509
11;512
12;514
13;514
14;514
15;513
0;511
1;509
2;509
3;512
4;516
5;519
6;521
7;523
8;523
9;522
10;521
11;522
12;524
13;525
14;524
15;523
0;521
1;517
2;514
3;515
4;518
5;521
6;523
7;524
8;524
9;523
10;521
11;521
12;523
13;524
14;524
15;523
0;521
1;519
2;516
3;515
4;516
5;519
6;523
7;525
8;525
9;525
10;524
11;523
12;524
13;525
14;527
15;526
0;525
1;522
2;519
3;515
4;515
5;518
6;521
7;523
8;524
9;525
10;524
11;523
12;521
13;522
14;524
15;525
0;523
1;521
2;519
3;516
4;514
5;515
6;518
7;521
8;524
9;525
10;526
11;525
12;523
13;523
14;524
15;526
0;525
1;524
2;523
3;520
4;516
5;514
6;517
7;520
8;522
9;523
10;524
11;524
12;522
13;521
14;522
15;524
0;526
1;524
2;524
3;523
4;519
5;516
6;515
7;519
8;523
9;525
10;527
11;528
12;527
13;526
14;525
15;526
0;527
1;528
2;527
3;526
4;524
5;521
6;519
7;520
8;524
9;527
10;528
11;531
12;530
13;530
14;528
15;527
0;529
1;531
2;531
3;530
4;528
5;526
6;523
7;522
8;524
9;527
10;531
11;533
12;534
13;533
14;531
15;529
0;530
1;531
2;533
3;532
4;531
5;528
6;524
7;521
8;521
9;524
10;527
11;529
12;529
13;530
14;529
15;527
0;526
1;527
2;529
3;529
4;527
5;524
6;520
7;516
8;514
9;514
10;517
11;520
12;521
13;522
14;521
15;519
0;516
1;515
2;515
3;517
4;515
5;512
6;510
7;505
8;502
9;499
10;499
11;502
12;504
13;505
14;505
15;503
0;501
1;498
2;498
3;499
4;499
5;498
6;495
7;492
8;488
9;485
10;484
11;486
12;488
13;489
14;491
15;491
0;490
1;488
2;487
3;487
4;488
5;488
6;487
7;484
8;483
9;479
10;476
11;477
12;479
13;482
14;483
15;485
0;484
1;483
2;481
3;481
4;483
5;484
6;485
7;483
8;481
9;478
10;475
11;474
12;476
13;479
14;482
15;484
0;485
1;485
2;484
3;483
4;484
5;487
6;488
7;487
8;486
9;484
10;480
11;478
12;478
13;481
14;484
15;487
0;488
1;488
2;488
3;487
4;486
5;487
6;489
7;490
8;489
9;487
10;485
11;483
12;480
13;482
14;486
15;489
0;491
1;492
2;492
3;491
4;489
5;487
6;490
7;491
8;491
9;490
10;488
11;486
12;483
13;482
14;484
15;487
0;491
1;492
2;493
3;493
4;492
5;491
6;492
7;493
8;495
9;496
10;495
11;493
12;489
13;487
14;487
15;491
0;495
1;497
2;498
3;499
4;499
5;497
6;496
7;497
8;498
9;499
10;497
11;496
12;493
13;490
14;487
15;488
0;491
1;495
2;497
3;498
4;499
5;498
6;497
7;496
8;499
9;500
10;501
11;500
12;499
13;496
14;493
15;491
0;494
1;498
2;500
3;501
4;503
5;503
6;501
7;501
8;501
9;504
10;504
11;504
12;503
13;501
14;498
15;495
0;494
1;497
2;500
3;503
4;504
5;505
6;504
7;502
8;501
9;502
10;503
11;504
12;503
13;501
14;499
15;495
0;493
1;495
2;498
3;501
4;503
5;504
6;505
7;504
8;501
9;500
10;502
11;504
12;504
13;503
14;501
15;498
0;495
1;494
2;496
3;500
4;503
5;504
6;505
7;504
8;503
9;502
10;502
11;503
12;504
13;504
14;504
15;502
0;499
1;496
2;496
3;500
4;503
5;505
6;507
7;507
8;505
9;504
10;503
11;505
12;507
13;507
14;505
15;504
0;501
1;498
2;495
3;496
4;499
5;502
6;503
7;504
8;505
9;504
10;504
11;504
12;506
13;508
14;508
15;506
0;504
1;501
2;498
3;496
4;499
5;504
6;506
7;508
8;507
9;507
10;505
11;504
12;505
13;507
14;508
15;507
0;505
1;503
2;499
3;496
4;497
5;500
6;503
7;505
8;506
9;507
10;507
11;506
12;506
13;507
14;509
15;509
0;507
1;504
2;502
3;499
4;498
5;499
6;502
7;505
8;507
9;508
10;508
11;506
12;504
13;504
14;506
15;507
0;507
1;505
2;504
3;502
4;499
5;497
6;500
7;504
8;507
9;508
10;509
11;509
12;508
13;506
14;505
15;507
0;509
1;508
2;508
3;505
4;501
5;497
6;497
7;501
8;504
9;506
10;508
11;508
12;507
13;505
14;504
15;506
0;508
1;508
2;507
3;504
4;502
5;499
6;497
7;500
8;503
9;505
10;507
11;508
12;508
13;506
14;505
15;505
0;507
1;507
2;507
3;505
4;503
5;501
6;497
7;496
8;499
9;503
10;506
11;508
12;508
13;508
14;506
15;505
0;505
1;507
2;507
3;507
4;506
5;504
6;500
7;498
8;499
9;503
10;505
11;508
12;510
13;510
14;509
15;508
0;507
1;508
2;510
3;510
4;508
5;507
6;505
7;502
8;500
9;501
10;504
11;507
12;508
13;509
14;510
15;509
0;507
1;507
2;509
3;511
4;512
5;510
6;508
7;505
8;503
9;503
10;508
11;511
12;514
13;516
14;518
15;517
0;516
1;515
2;516
3;518
4;519
5;518
6;517
7;514
8;511
9;508
10;508
11;511
12;513
13;514
14;514
15;513
0;511
1;510
2;509
3;510
4;510
5;510
6;508
7;505
8;502
9;497
10;495
11;496
12;498
13;500
14;501
15;502
0;501
1;500
2;499
3;499
4;500
5;502
6;502
7;500
8;498
9;496
10;492
11;491
12;494
13;497
14;500
15;502
0;503
1;503
2;502
3;500
4;500
5;503
6;503
7;502
8;500
9;499
10;496
11;493
12;493
13;497
14;499
15;502
0;503
1;503
2;503
3;501
4;500
5;502
6;504
7;504
8;503
9;501
10;498
11;495
12;494
13;495
14;498
15;500
0;502
1;504
2;504
3;503
4;501
5;501
6;504
7;505
8;504
9;503
10;501
11;498
12;496
13;496
14;499
15;501
0;504
1;506
2;507
3;508
4;507
5;505
6;505
7;507
8;508
9;508
10;507
11;505
12;502
13;499
14;502
15;507
0;512
1;516
2;520
3;523
4;525
5;526
6;530
7;536
8;540
9;543
10;545
11;547
12;546
13;544
14;543
15;544
0;544
1;541
2;537
3;532
4;527
5;519
6;513
7;509
8;507
9;505
10;503
11;500
12;496
13;491
14;483
15;477
0;472
1;469
2;467
3;466
4;465
5;463
6;460
7;458
8;457
9;456
10;455
11;452
12;451
13;447
14;445
15;443
0;445
1;451
2;455
3;458
4;462
5;464
6;466
7;467
8;469
9;473
10;477
11;479
12;480
13;482
14;481
15;481
0;481
1;484
2;489
3;494
4;497
5;501
6;503
7;503
8;503
9;505
10;508
11;510
12;511
13;511
14;510
15;508
0;506
1;506
2;510
3;513
4;515
5;518
6;519
7;519
8;517
9;518
10;519
11;520
12;522
13;521
14;520
15;518
0;515
1;512
2;512
3;516
4;520
5;522
6;524
7;524
8;523
9;521
10;521
11;524
12;525
13;525
14;524
15;521
0;518
1;515
2;513
3;516
4;520
5;523
6;524
7;525
8;525
9;524
10;522
11;522
12;524
13;525
14;524
15;523
0;521
1;519
2;516
3;515
4;519
5;523
6;525
7;526
8;527
9;526
10;524
11;523
12;524
13;526
14;526
15;525
0;524
1;521
2;519
3;516
4;516
5;519
6;522
7;524
8;525
9;526
10;524
11;524
12;525
13;526
14;528
15;527
0;526
1;523
2;520
3;518
4;515
5;518
6;523
7;525
8;526
9;527
10;526
11;525
12;525
13;526
14;527
15;528
0;527
1;526
2;524
3;520
4;517
5;517
6;520
7;525
8;527
9;528
10;529
11;529
12;527
13;527
14;528
15;530
0;529
1;529
2;528
3;525
4;521
5;519
6;520
7;524
8;527
9;529
10;530
11;531
12;529
13;529
14;530
15;531
0;532
1;532
2;532
3;531
4;528
5;524
6;523
7;526
8;529
9;531
10;533
11;535
12;535
13;533
14;532
15;531
0;533
1;534
2;533
3;530
4;527
5;524
6;521
7;520
8;523
9;527
10;528
11;529
12;530
13;529
14;527
15;527
0;528
1;528
2;527
3;526
4;525
5;521
6;518
7;515
8;515
9;518
10;521
11;523
12;523
13;522
14;519
15;516
0;515
1;516
2;517
3;516
4;514
5;511
6;508
7;504
8;501
9;502
10;505
11;507
12;507
13;507
14;504
15;502
0;499
1;499
2;499
3;500
4;499
5;496
6;493
7;489
8;486
9;485
10;487
11;489
12;491
13;491
14;491
15;489
0;488
1;487
2;488
3;489
4;489
5;488
6;486
7;483
8;480
9;477
10;478
11;481
12;484
13;486
14;487
15;487
0;485
1;483
2;483
3;485
4;485
5;485
6;483
7;482
8;480
9;478
10;477
11;479
12;483
13;485
14;487
15;488
0;487
1;485
2;484
3;484
4;487
5;486
6;486
7;484
8;482
9;480
10;477
11;477
12;480
13;484
14;486
15;488
0;489
1;487
2;486
3;485
4;487
5;489
6;490
7;489
8;488
9;485
10;481
11;478
12;479
13;483
14;486
15;487
0;488
1;488
2;488
3;486
4;486
5;489
6;490
7;490
8;489
9;487
10;485
11;482
12;482
13;485
14;488
15;490
0;491
1;493
2;494
3;493
4;492
5;492
6;494
7;495
8;494
9;493
10;491
11;487
12;485
13;486
14;489
15;493
0;496
1;497
2;497
3;496
4;494
5;495
6;496
7;498
8;498
9;497
10;496
11;494
12;491
13;489
14;490
15;494
0;497
1;499
2;500
3;500
4;499
5;497
6;497
7;499
8;500
9;500
10;498
11;497
12;494
13;491
14;491
15;493
0;497
1;499
2;501
3;502
4;501
5;499
6;498
7;499
8;499
9;500
10;500
11;499
12;497
13;496
14;494
15;494
0;496
1;500
2;504
3;505
4;505
5;504
6;503
7;502
8;502
9;504
10;504
11;503
12;501
13;499
14;495
15;493
0;494
1;499
2;502
3;503
4;504
5;504
6;504
7;502
8;502
9;504
10;504
11;504
12;503
13;501
14;499
15;495
0;495
1;497
2;501
3;504
4;505
5;506
6;505
7;503
8;502
9;503
10;505
11;506
12;506
13;504
14;502
15;499
0;497
1;497
2;500
3;504
4;505
5;507
6;507
7;506
8;504
9;504
10;505
11;507
12;508
13;507
14;506
15;504
0;500
1;497
2;499
3;502
4;505
5;508
6;509
7;508
8;507
9;505
10;505
11;507
12;507
13;507
14;507
15;504
0;502
1;498
2;498
3;501
4;503
5;505
6;506
7;507
8;506
9;503
10;503
11;503
12;505
13;506
14;505
15;504
0;503
1;499
2;497
3;497
4;500
5;504
6;506
7;507
8;508
9;507
10;505
11;504
12;505
13;507
14;507
15;506
0;504
1;501
2;499
3;496
4;498
5;501
6;504
7;506
8;508
9;508
10;507
11;505
12;505
13;507
14;508
15;508
0;506
1;504
2;501
3;499
4;497
5;499
6;503
7;505
8;506
9;508
10;507
11;506
12;505
13;506
14;508
15;508
0;508
1;506
2;504
3;500
4;498
5;499
6;502
7;505
8;507
9;508
10;508
11;507
12;505
13;504
14;506
15;508
0;507
1;506
2;505
3;502
4;499
5;497
6;499
7;503
8;506
9;508
10;509
11;508
12;508
13;507
14;506
15;508
0;510
1;510
2;508
3;506
4;503
5;499
6;499
7;502
8;506
9;508
10;510
11;511
12;510
13;509
14;508
15;508
0;510
1;510
2;509
3;508
4;505
5;502
6;499
7;501
8;505
9;507
10;509
11;509
12;510
13;509
14;507
15;507
0;509
1;510
2;510
3;509
4;508
5;506
6;503
7;500
8;501
9;504
10;507
11;509
12;511
13;511
14;509
15;508
0;508
1;510
2;512
3;512
4;512
5;510
6;507
7;504
8;504
9;508
10;511
11;514
12;516
13;517
14;515
15;515
0;514
1;515
2;517
3;518
4;516
5;515
6;512
7;508
8;506
9;506
10;509
11;511
12;512
13;512
14;512
15;510
0;508
1;508
2;510
3;510
4;508
5;507
6;505
7;502
8;498
9;495
10;497
11;499
12;502
13;504
14;505
15;504
0;503
1;501
2;502
3;504
4;505
5;505
6;503
7;501
8;498
9;494
10;493
11;495
12;498
13;500
14;502
15;503
0;502
1;501
2;500
3;500
4;502
5;502
6;502
7;500
8;497
9;495
10;492
11;493
12;496
13;500
14;503
15;503
0;503
1;502
2;501
3;501
4;503
5;505
6;505
7;503
8;501
9;499
10;496
11;493
12;495
13;499
14;502
15;504
0;504
1;504
2;503
3;501
4;501
5;503
6;504
7;504
8;503
9;501
10;499
11;495
12;495
13;498
14;502
15;504
0;505
1;507
2;507
3;505
4;505
5;506
6;508
7;509
8;508
9;508
10;508
11;506
12;505
13;508
14;514
15;520
0;525
1;529
2;534
3;535
4;536
5;539
6;544
7;548
8;551
9;551
10;549
11;543
12;535
13;528
14;525
15;523
0;520
1;516
2;512
3;508
4;504
5;500
6;499
7;499
8;497
9;492
10;485
11;476
12;466
13;458
14;454
15;456
0;458
1;459
2;460
3;458
4;456
5;452
6;450
7;450
8;451
9;452
10;452
11;451
12;450
13;448
14;447
15;450
0;455
1;461
2;466
3;469
4;471
5;472
6;473
7;476
8;480
9;483
10;486
11;487
12;487
13;487
14;486
15;486
0;491
1;497
2;502
3;504
4;507
5;508
6;508
7;509
8;510
9;512
10;514
11;514
12;513
13;512
14;510
15;507
0;507
1;511
2;515
3;517
4;519
5;520
6;520
7;519
8;519
9;520
10;523
11;523
12;522
13;519
14;517
15;515
0;512
1;513
2;516
3;519
4;522
5;523
6;523
7;521
8;520
9;521
10;523
11;524
12;524
13;523
14;521
15;518
0;515
1;514
2;517
3;521
4;523
5;524
6;525
7;524
8;523
9;522
10;522
11;523
12;524
13;524
14;523
15;521
0;519
1;516
2;516
3;519
4;523
5;526
6;526
7;526
8;525
9;523
10;522
11;523
12;525
13;525
14;524
15;523
0;520
1;517
2;514
3;515
4;519
5;522
6;523
7;525
8;526
9;524
10;522
11;521
12;524
13;526
14;526
15;524
0;523
1;520
2;517
3;515
4;518
5;522
6;524
7;525
8;527
9;527
10;526
11;526
12;526
13;528
14;529
15;529
0;527
1;526
2;523
3;520
4;520
5;524
6;527
7;530
8;531
9;531
10;530
11;529
12;528
13;529
14;531
15;531
0;530
1;529
2;526
3;523
4;520
5;521
6;526
7;529
8;531
9;532
10;533
11;533
12;531
13;532
14;534
15;535
0;535
1;534
2;532
3;529
4;526
5;525
6;528
7;531
8;534
9;535
10;536
11;536
12;535
13;534
14;534
15;535
0;536
1;535
2;533
3;530
4;527
5;524
6;523
7;525
8;529
9;531
10;531
11;532
12;531
13;528
14;526
15;526
0;527
1;527
2;526
3;524
4;520
5;516
6;513
7;514
8;516
9;519
10;520
11;521
12;520
13;518
14;515
15;514
0;515
1;515
2;513
3;511
4;509
5;504
6;501
7;498
8;499
9;502
10;504
11;504
12;505
13;504
14;501
15;499
0;499
1;500
2;500
3;499
4;496
5;494
6;489
7;486
8;485
9;488
10;491
11;492
12;492
13;493
14;492
15;489
0;488
1;489
2;489
3;489
4;487
5;486
6;483
7;480
8;478
9;479
10;481
11;483
12;485
13;486
14;486
15;485
0;483
1;483
2;484
3;486
4;485
5;484
6;483
7;480
8;477
9;476
10;479
11;482
12;483
13;486
14;487
15;487
0;485
1;483
2;485
3;487
4;487
5;487
6;487
7;484
8;481
9;478
10;479
11;481
12;485
13;487
14;488
15;489
0;488
1;487
2;486
3;487
4;489
5;491
6;489
7;488
8;486
9;482
10;480
11;481
12;484
13;488
14;489
15;490
0;490
1;489
2;488
3;488
4;490
5;491
6;491
7;490
8;488
9;485
10;482
11;482
12;485
13;489
14;491
15;493
0;495
1;494
2;493
3;492
4;493
5;494
6;496
7;495
8;494
9;492
10;489
11;487
12;488
13;491
14;495
15;497
0;499
1;499
2;499
3;498
4;497
5;498
6;500
7;501
8;499
9;498
10;495
11;492
12;489
13;491
14;494
15;497
0;499
1;499
2;500
3;499
4;497
5;497
6;499
7;501
8;501
9;500
10;499
11;496
12;492
13;491
14;494
15;497
0;500
1;502
2;503
3;502
4;501
5;499
6;500
7;502
8;502
9;501
10;500
11;498
12;495
13;493
14;493
15;496
0;499
1;501
2;503
3;503
4;503
5;502
6;501
7;503
8;505
9;505
10;504
11;502
12;499
13;496
14;494
15;496
0;499
1;502
2;504
3;505
4;505
5;504
6;503
7;503
8;505
9;506
10;505
11;504
12;503
13;499
14;496
15;496
0;499
1;502
2;504
3;505
4;506
5;505
6;503
7;502
8;503
9;505
10;506
11;505
12;504
13;502
14;498
15;495
0;496
1;499
2;502
3;504
4;504
5;505
6;504
7;502
8;501
9;503
10;504
11;505
12;504
13;503
14;500
15;498
0;496
1;497
2;500
3;503
4;505
5;506
6;506
7;505
8;504
9;504
10;506
11;507
12;506
13;504
14;502
15;499
0;496
1;495
2;498
3;503
4;504
5;506
6;506
7;506
8;505
9;503
10;504
11;506
12;507
13;506
14;505
15;503
0;499
1;496
2;496
3;500
4;504
5;505
6;507
7;508
8;506
9;504
10;503
11;504
12;506
13;506
14;505
15;503
0;500
1;497
2;495
3;497
4;501
5;503
6;505
7;507
8;506
9;505
10;504
11;504
12;506
13;507
14;506
15;505
0;503
1;499
2;496
3;496
4;498
5;502
6;504
7;505
8;507
9;506
10;504
11;504
12;504
13;506
14;507
15;506
0;504
1;502
2;499
3;496
4;496
5;500
6;503
7;505
8;507
9;508
10;506
11;504
12;504
13;506
14;508
15;508
0;506
1;504
2;501
3;498
4;496
5;499
6;503
7;505
8;507
9;508
10;508
11;507
12;505
13;506
14;507
15;508
0;508
1;507
2;505
3;502
4;499
5;497
6;500
7;503
8;505
9;507
10;508
11;507
12;506
13;505
14;506
15;508
0;508
1;507
2;505
3;504
4;501
5;498
6;499
7;502
8;505
9;507
10;509
11;510
12;509
13;508
14;508
15;508
0;510
1;510
2;508
3;506
4;504
5;501
6;499
7;501
8;505
9;507
10;509
11;511
12;511
13;510
14;508
15;508
0;510
1;511
2;511
3;510
4;508
5;504
6;502
7;500
8;504
9;507
10;509
11;511
12;511
13;511
14;509
15;508
0;510
1;512
2;512
3;511
4;511
5;510
6;507
7;504
8;506
9;509
10;512
11;515
12;516
13;518
14;517
15;515
0;515
1;516
2;517
3;516
4;515
5;512
6;509
7;505
8;503
9;504
10;507
11;510
12;511
13;510
14;509
15;508
0;505
1;505
2;506
3;507
4;505
5;503
6;501
7;498
8;495
9;494
10;497
11;500
12;503
13;504
14;504
15;504
0;502
1;500
2;502
3;503
4;503
5;502
6;501
7;499
8;495
9;492
10;494
11;497
12;500
13;502
14;503
15;504
0;502
1;501
2;500
3;501
4;502
5;501
6;500
7;499
8;496
9;493
10;491
11;493
12;496
13;499
14;501
15;501
0;502
1;501
2;499
3;500
4;502
5;502
6;502
7;500
8;498
9;495
10;492
11;492
12;496
13;499
14;502
15;504
0;504
1;503
2;502
3;500
4;501
5;503
6;504
7;503
8;502
9;499
10;496
11;494
12;495
13;499
14;503
15;504
0;506
1;507
2;506
3;504
4;504
5;505
6;508
7;509
8;510
9;510
10;510
11;509
12;509
13;514
14;521
15;527
0;533
1;538
2;540
3;542
4;544
5;548
6;552
7;555
8;555
9;551
10;545
11;536
12;529
13;524
14;521
15;520
0;519
1;516
2;513
3;511
4;508
5;505
6;504
7;502
8;497
9;491
10;483
11;475
12;467
13;462
14;461
15;463
0;465
1;464
2;463
3;460
4;455
5;452
6;451
7;453
8;455
9;456
10;457
11;457
12;456
13;455
14;455
15;459
0;464
1;469
2;474
3;476
4;479
5;480
6;481
7;483
8;487
9;489
10;491
11;492
12;492
13;490
14;489
15;489
0;495
1;500
2;504
3;507
4;510
5;510
6;510
7;510
8;511
9;513
10;515
11;515
12;513
13;511
14;508
15;505
0;507
1;511
2;515
3;517
4;518
5;519
6;518
7;517
8;517
9;519
10;522
11;521
12;520
13;519
14;516
15;513
0;512
1;514
2;518
3;520
4;521
5;523
6;522
7;521
8;520
9;521
10;523
11;524
12;524
13;521
14;519
15;516
0;513
1;512
2;516
3;519
4;522
5;523
6;524
7;523
8;521
9;520
10;521
11;523
12;523
13;523
14;521
15;519
0;515
1;512
2;513
3;516
4;519
5;521
6;523
7;523
8;521
9;520
10;520
11;522
12;523
13;522
14;521
15;519
0;516
1;514
2;512
3;514
4;518
5;520
6;522
7;523
8;523
9;521
10;521
11;522
12;524
13;525
14;524
15;523
0;521
1;517
2;513
3;514
4;518
5;521
6;524
7;525
8;526
9;526
10;524
11;523
12;524
13;527
14;527
15;527
0;525
1;523
2;520
3;517
4;519
5;523
6;525
7;527
8;529
9;529
10;527
11;527
12;527
13;529
14;531
15;531
0;530
1;529
2;526
3;524
4;522
5;525
6;528
7;532
8;535
9;536
10;535
11;534
12;533
13;533
14;534
15;535
0;534
1;532
2;530
3;527
4;524
5;524
6;528
7;532
8;533
9;535
10;535
11;534
12;532
13;531
14;533
15;535
0;535
1;534
2;531
3;528
4;525
5;522
6;523
7;526
8;528
9;529
10;530
11;529
12;528
13;526
14;526
15;527
0;529
1;528
2;526
3;524
4;519
5;515
6;513
7;514
8;517
9;518
10;519
11;519
12;518
13;516
14;513
15;513
0;514
1;512
2;511
3;508
4;505
5;500
6;497
7;496
8;499
9;502
10;503
11;504
12;503
13;501
14;499
15;498
0;498
1;498
2;497
3;495
4;493
5;490
6;486
7;483
8;484
9;487
10;488
11;489
12;489
13;489
14;487
15;486
0;485
1;486
2;487
3;487
4;486
5;484
6;481
7;477
8;476
9;479
10;482
11;484
12;487
13;487
14;487
15;486
0;484
1;485
2;487
3;488
4;487
5;486
6;484
7;480
8;476
9;476
10;479
11;482
12;484
13;486
14;486
15;486
0;485
1;484
2;486
3;487
4;487
5;487
6;486
7;483
8;480
9;478
10;479
11;483
12;486
13;487
14;488
15;488
0;487
1;486
2;486
3;488
4;490
5;490
6;489
7;487
8;484
9;482
10;481
11;484
12;488
13;491
14;493
15;494
0;494
1;492
2;491
3;492
4;493
5;494
6;493
7;492
8;491
9;487
10;484
11;484
12;487
13;491
14;494
15;495
0;496
1;496
2;495
3;494
4;495
5;496
6;497
7;496
8;495
9;493
10;489
11;487
12;489
13;492
14;495
15;497
0;498
1;497
2;496
3;496
4;496
5;497
6;499
7;499
8;498
9;496
10;494
11;492
12;491
13;493
14;495
15;498
0;499
1;500
2;500
3;499
4;498
5;500
6;501
7;501
8;500
9;499
10;497
11;494
12;492
13;492
14;495
15;499
0;501
1;502
2;503
3;502
4;501
5;500
6;503
7;504
8;504
9;503
10;502
11;498
12;495
13;493
14;495
15;498
0;502
1;504
2;505
3;505
4;504
5;502
6;503
7;504
8;506
9;506
10;504
11;503
12;500
13;497
14;496
15;499
0;502
1;505
2;508
3;508
4;508
5;506
6;505
7;506
8;508
9;508
10;508
11;506
12;504
13;501
14;497
15;497
0;500
1;503
2;505
3;507
4;507
5;506
6;505
7;504
8;505
9;507
10;506
11;505
12;503
13;501
14;498
15;495
0;497
1;501
2;504
3;505
4;507
5;508
6;506
7;505
8;505
9;507
10;509
11;508
12;507
13;505
14;502
15;499
0;497
1;500
2;504
3;507
4;508
5;508
6;507
7;505
8;503
9;504
10;505
11;507
12;506
13;505
14;504
15;500
0;497
1;498
2;501
3;505
4;507
5;507
6;508
7;507
8;506
9;505
10;507
11;508
12;508
13;507
14;505
15;503
0;499
1;497
2;499
3;503
4;505
5;508
6;508
7;508
8;506
9;505
10;505
11;507
12;508
13;507
14;505
15;504
0;501
1;498
2;497
3;500
4;503
5;505
6;507
7;508
8;508
9;506
10;505
11;506
12;508
13;508
14;508
15;506
0;504
1;500
2;498
3;498
4;501
5;504
6;506
7;507
8;508
9;506
10;504
11;504
12;506
13;507
14;507
15;505
0;504
1;502
2;499
3;496
4;498
5;501
6;504
7;506
8;508
9;508
10;506
11;505
12;505
13;507
14;508
15;508
0;506
1;505
2;502
3;499
4;497
5;501
6;504
7;507
8;508
9;508
10;507
11;505
12;504
13;505
14;507
15;508
0;507
1;505
2;502
3;499
4;496
5;497
6;501
7;504
8;507
9;508
10;508
11;507
12;505
13;504
14;506
15;508
0;508
1;507
2;505
3;502
4;499
5;497
6;498
7;502
8;505
9;507
10;508
11;508
12;507
13;505
14;505
15;507
0;508
1;508
2;507
3;505
4;502
5;499
6;498
7;501
8;505
9;507
10;508
11;509
12;508
13;508
14;506
15;506
0;508
1;509
2;508
3;507
4;505
5;502
6;499
7;500
8;504
9;507
10;509
11;511
12;512
13;511
14;511
15;511
0;513
1;515
2;515
3;515
4;514
5;512
6;509
7;507
8;509
9;512
10;514
11;515
12;517
13;518
14;515
15;514
0;513
1;515
2;516
3;514
4;512
5;510
6;506
7;503
8;502
9;504
10;507
11;509
12;510
13;510
14;508
15;505
0;503
1;504
2;505
3;505
4;504
5;502
6;499
7;496
8;493
9;494
10;497
11;501
12;503
13;503
14;503
15;502
0;501
1;500
2;502
3;503
4;503
5;502
6;500
7;498
8;495
9;493
10;495
11;498
12;501
13;502
14;503
15;503
0;502
1;500
2;500
3;502
4;504
5;504
6;503
7;501
8;498
9;495
10;495
11;497
12;501
13;503
14;504
15;505
0;504
1;503
2;502
3;503
4;505
5;505
6;504
7;503
8;501
9;497
10;495
11;496
12;499
13;502
14;504
15;505
0;505
1;504
2;502
3;502
4;503
5;505
6;505
7;505
8;504
9;502
10;498
11;497
12;500
13;504
14;507
15;509
0;510
1;510
2;509
3;509
4;511
5;514
6;518
7;519
8;519
9;521
10;520
11;522
12;524
13;531
14;537
15;541
0;546
1;550
2;551
3;552
4;551
5;550
6;547
7;543
8;537
9;531
10;523
11;515
12;508
13;504
14;504
15;506
0;507
1;506
2;505
3;500
4;494
5;488
6;484
7;480
8;476
9;472
10;468
11;465
12;461
13;456
14;457
15;458
0;459
1;458
2;457
3;457
4;455
5;455
6;456
7;459
8;461
9;462
10;462
11;462
12;460
13;460
14;460
15;465
0;471
1;475
2;480
3;482
4;484
5;485
6;486
7;490
8;494
9;496
10;497
11;497
12;497
13;496
14;494
15;496
0;500
1;505
2;509
3;511
4;511
5;511
6;511
7;511
8;513
9;516
10;516
11;516
12;516
13;513
14;511
15;510
0;513
1;516
2;519
3;521
4;522
5;522
6;521
7;519
8;520
9;521
10;523
11;523
12;522
13;520
14;517
15;514
0;514
1;517
2;520
3;523
4;524
5;524
6;524
7;523
8;523
9;524
10;525
11;525
12;524
13;522
14;519
15;516
0;513
1;515
2;517
3;520
4;522
5;523
6;524
7;523
8;522
9;522
10;524
11;526
12;525
13;524
14;522
15;519
0;516
1;514
2;516
3;520
4;523
5;524
6;525
7;524
8;522
9;520
10;521
11;523
12;524
13;524
14;522
15;520
0;517
1;514
2;513
3;517
4;519
5;521
6;523
7;523
8;523
9;521
10;520
11;521
12;524
13;524
14;524
15;523
0;520
1;517
2;515
3;516
4;519
5;523
6;525
7;525
8;525
9;524
10;523
11;523
12;525
13;527
14;527
15;526
0;525
1;522
2;519
3;518
4;519
5;522
6;525
7;527
8;528
9;528
10;527
11;526
12;526
13;527
14;528
15;528
0;527
1;526
2;522
3;520
4;520
5;524
6;527
7;530
8;532
9;533
10;532
11;531
12;529
13;531
14;532
15;533
0;532
1;531
2;529
3;526
4;523
5;524
6;527
7;531
8;532
9;534
10;534
11;532
12;529
13;528
14;529
15;530
0;531
1;530
2;528
3;525
4;521
5;518
6;521
7;524
8;526
9;527
10;528
11;527
12;526
13;524
14;524
15;524
0;525
1;523
2;521
3;519
4;514
5;511
6;510
7;512
8;515
9;516
10;518
11;518
12;515
13;513
14;511
15;511
0;512
1;511
2;509
3;507
4;503
5;498
6;494
7;495
8;496
9;499
10;500
11;501
12;501
13;499
14;496
15;495
0;496
1;497
2;496
3;494
4;492
5;488
6;484
7;482
8;484
9;487
10;489
11;490
12;491
13;489
14;487
15;485
0;484
1;486
2;487
3;486
4;484
5;482
6;479
7;476
8;476
9;479
10;482
11;484
12;486
13;487
14;486
15;484
0;483
1;484
2;486
3;487
4;485
5;484
6;482
7;478
8;476
9;477
10;480
11;484
12;486
13;487
14;487
15;486
0;485
1;484
2;486
3;487
4;487
5;486
6;484
7;481
8;479
9;477
10;480
11;483
12;486
13;488
14;489
15;489
0;487
1;487
2;487
3;489
4;490
5;489
6;488
7;487
8;484
9;482
10;481
11;484
12;487
13;489
14;491
15;492
0;491
1;489
2;488
3;489
4;491
5;492
6;491
7;489
8;487
9;484
10;482
11;483
12;487
13;490
14;492
15;493
0;494
1;492
2;491
3;491
4;493
5;494
6;494
7;492
8;491
9;488
10;486
11;484
12;487
13;490
14;492
15;494
0;496
1;496
2;495
3;494
4;494
5;495
6;497
7;497
8;496
9;493
10;490
11;488
12;487
13;491
14;495
15;497
0;499
1;499
2;498
3;497
4;496
5;498
6;499
7;499
8;499
9;498
10;496
11;492
12;490
13;490
14;494
15;497
0;499
1;500
2;501
3;500
4;499
5;498
6;500
7;502
8;501
9;499
10;498
11;496
12;493
13;491
14;494
15;497
0;500
1;503
2;503
3;504
4;502
5;501
6;502
7;504
8;505
9;504
10;502
11;500
12;497
13;495
14;496
15;499
0;503
1;504
2;506
3;506
4;505
5;504
6;503
7;504
8;505
9;506
10;505
11;504
12;502
13;498
14;496
15;497
0;500
1;504
2;505
3;507
4;507
5;505
6;504
7;504
8;506
9;508
10;508
11;507
12;504
13;501
14;498
15;496
0;499
1;503
2;506
3;508
4;509
5;508
6;507
7;506
8;507
9;508
10;509
11;507
12;506
13;504
14;501
15;498
0;498
1;501
2;504
3;507
4;508
5;509
6;508
7;506
8;505
9;507
10;509
11;509
12;508
13;506
14;504
15;500
0;497
1;499
2;502
3;505
4;506
5;507
6;507
7;505
8;504
9;504
10;506
11;507
12;507
13;506
14;504
15;501
0;499
1;497
2;500
3;504
4;507
5;508
6;508
7;508
8;506
9;505
10;505
11;507
12;508
13;507
14;506
15;504
0;500
1;498
2;498
3;501
4;504
5;506
6;508
7;508
8;507
9;506
10;506
11;507
12;508
13;509
14;507
15;504
0;502
1;499
2;497
3;499
4;503
5;505
6;508
7;509
8;509
9;508
10;506
11;506
12;508
13;508
14;508
15;507
0;505
1;503
2;499
3;498
4;501
5;505
6;508
7;509
8;510
9;509
10;508
11;506
12;506
13;507
14;508
15;507
0;505
1;504
2;500
3;497
4;498
5;501
6;504
7;506
8;508
9;508
10;507
11;506
12;505
13;507
14;508
15;507
0;506
1;504
2;501
3;498
4;496
5;498
6;502
7;505
8;507
9;508
10;508
11;507
12;505
13;505
14;507
15;508
0;507
1;506
2;505
3;503
4;499
5;498
6;501
7;504
8;506
9;508
10;508
11;508
12;506
13;504
14;505
15;507
0;508
1;507
2;505
3;503
4;500
5;498
6;497
7;501
8;504
9;506
10;508
11;509
12;508
13;507
14;507
15;508
0;510
1;510
2;508
3;507
4;504
5;501
6;499
7;501
8;505
9;509
10;511
11;512
12;512
13;510
14;508
15;508
0;510
1;512
2;512
3;511
4;509
5;506
6;503
7;502
8;504
9;507
10;509
11;511
12;512
13;512
14;511
15;510
0;511
1;513
2;514
3;514
4;513
5;512
6;509
7;507
8;508
9;512
10;515
11;517
12;518
13;518
14;517
15;515
0;515
1;516
2;518
3;518
4;516
5;514
6;512
7;508
8;505
9;507
10;510
11;512
12;514
13;514
14;514
15;511
0;510
1;509
2;510
3;510
4;509
5;507
6;504
7;500
8;496
9;495
10;497
11;500
12;502
13;503
14;503
15;503
0;501
1;500
2;502
3;504
4;505
5;504
6;503
7;501
8;497
9;494
10;495
11;498
12;502
13;504
14;505
15;505
0;504
1;503
2;502
3;503
4;504
5;504
6;503
7;501
8;499
9;495
10;494
11;496
12;499
13;502
14;504
15;504
0;504
1;503
2;501
3;501
4;503
5;504
6;504
7;503
8;502
9;499
10;495
11;494
12;497
13;499
14;502
15;503
0;504
1;503
2;502
3;501
4;502
5;504
6;505
7;503
8;502
9;499
10;496
11;494
12;495
13;499
14;502
15;504
0;508
1;509
2;508
3;507
4;505
5;507
6;509
7;509
8;509
9;508
10;507
11;504
12;504
13;508
14;514
15;519
0;524
1;528
2;532
3;535
4;537
5;540
6;544
7;548
8;550
9;551
10;550
11;546
12;539
13;532
14;530
15;528
0;525
1;522
2;517
3;512
4;508
5;504
6;503
7;504
8;503
9;500
10;495
11;488
12;480
13;472
14;466
15;466
0;467
1;468
2;468
3;467
4;464
5;462
6;459
7;459
8;458
9;456
10;455
11;453
12;451
13;448
14;447
15;450
0;456
1;461
2;464
3;467
4;468
5;469
6;470
7;472
8;476
9;480
10;482
11;483
12;483
13;482
14;482
15;483
0;488
1;494
2;498
3;502
4;505
5;506
6;506
7;505
8;508
9;511
10;512
11;512
12;511
13;509
14;507
15;504
0;505
1;509
2;512
3;515
4;518
5;518
6;517
7;516
8;516
9;518
10;519
11;519
12;519
13;517
14;514
15;511
0;509
1;512
2;516
3;519
4;520
5;521
6;522
7;521
8;519
9;519
10;521
11;523
12;521
13;520
14;518
15;515
0;512
1;511
2;515
3;518
4;521
5;522
6;523
7;523
8;521
9;520
10;521
11;523
12;524
13;523
14;522
15;519
0;516
1;513
2;514
3;517
4;520
5;521
6;523
7;523
8;521
9;520
10;519
11;521
12;522
13;522
14;521
15;520
0;518
1;515
2;513
3;515
4;519
5;521
6;523
7;524
8;523
9;521
10;520
11;519
12;521
13;522
14;522
15;521
0;519
1;517
2;513
3;512
4;516
5;519
6;522
7;524
8;524
9;524
10;522
11;521
12;522
13;523
14;524
15;523
0;523
1;521
2;518
3;515
4;516
5;520
6;524
7;525
8;526
9;526
10;524
11;523
12;523
13;524
14;527
15;527
0;526
1;525
2;523
3;519
4;518
5;521
6;525
7;528
8;530
9;531
10;530
11;528
12;527
13;528
14;530
15;532
0;531
1;531
2;529
3;526
4;523
5;523
6;526
7;529
8;531
9;533
10;534
11;533
12;531
13;530
14;531
15;532
0;532
1;531
2;529
3;527
4;524
5;521
6;521
7;524
8;527
9;529
10;530
11;529
12;527
13;526
14;525
15;526
0;528
1;527
2;525
3;523
4;519
5;516
6;513
7;515
8;518
9;520
10;521
11;521
12;520
13;518
14;515
15;515
0;516
1;517
2;515
3;513
4;511
5;507
6;502
7;501
8;503
9;505
10;506
11;507
12;506
13;504
14;502
15;500
0;500
1;500
2;500
3;498
4;495
5;492
6;487
7;483
8;484
9;487
10;490
11;492
12;493
13;492
14;490
15;488
0;487
1;488
2;489
3;489
4;487
5;485
6;483
7;479
8;477
9;479
10;482
11;485
12;487
13;487
14;486
15;484
0;483
1;483
2;485
3;486
4;486
5;485
6;482
7;479
8;476
9;474
10;478
11;481
12;483
13;484
14;485
15;484
0;483
1;483
2;484
3;486
4;486
5;485
6;484
7;481
8;478
9;476
10;478
11;482
12;485
13;487
14;488
15;489
0;488
1;486
2;486
3;487
4;489
5;489
6;488
7;486
8;484
9;481
10;479
11;481
12;486
13;489
14;491
15;493
0;492
1;491
2;489
3;490
4;491
5;492
6;492
7;491
8;488
9;485
10;482
11;481
12;485
13;488
14;490
15;492
0;493
1;492
2;491
3;491
4;493
5;495
6;495
7;494
8;493
9;491
10;487
11;484
12;485
13;489
14;492
15;494
0;496
1;497
2;496
3;495
4;495
5;497
6;499
7;499
8;498
9;496
10;493
11;489
12;487
13;490
14;493
15;495
0;498
1;499
2;500
3;498
4;498
5;498
6;500
7;502
8;500
9;499
10;496
11;494
12;491
13;492
14;495
15;499
0;501
1;502
2;502
3;502
4;500
5;499
6;500
7;502
8;503
9;502
10;500
11;497
12;494
13;492
14;493
15;496
0;499
1;500
2;502
3;502
4;501
5;499
6;499
7;502
8;503
9;503
10;502
11;499
12;497
13;494
14;492
15;495
0;498
1;501
2;503
3;504
4;504
5;502
6;502
7;503
8;505
9;507
10;506
11;504
12;501
13;498
14;496
15;495
0;499
1;502
2;505
3;507
4;507
5;506
6;505
7;504
8;504
9;506
10;507
11;505
12;504
13;501
14;497
15;494
0;495
1;499
2;503
3;504
4;505
5;505
6;503
7;501
8;501
9;503
10;505
11;505
12;505
13;504
14;500
15;497
0;495
1;497
2;501
3;504
4;504
5;505
6;505
7;504
8;503
9;504
10;505
11;507
12;505
13;504
14;503
15;499
0;496
1;496
2;500
3;504
4;506
5;507
6;508
7;507
8;504
9;503
10;504
11;505
12;506
13;505
14;503
15;501
0;498
1;495
2;496
3;500
4;504
5;505
6;507
7;507
8;506
9;504
10;503
11;505
12;506
13;507
14;505
15;504
0;501
1;498
2;496
3;499
4;502
5;504
6;506
7;507
8;506
9;505
10;504
11;505
12;507
13;508
14;507
15;506
0;504
1;502
2;499
3;497
4;501
5;504
6;507
7;508
8;509
9;509
10;508
11;507
12;508
13;510
14;511
15;509
0;507
1;504
2;500
3;498
4;499
5;503
6;506
7;508
8;510
9;508
10;507
11;505
12;505
13;507
14;509
15;508
0;507
1;505
2;502
3;499
4;499
5;501
6;504
7;507
8;508
9;508
10;508
11;507
12;505
13;505
14;507
15;508
0;507
1;506
2;504
3;500
4;497
5;497
6;500
7;503
8;505
9;506
10;508
11;507
12;506
13;505
14;505
15;507
0;507
1;506
2;504
3;502
4;499
5;496
6;497
7;501
8;504
9;506
10;508
11;508
12;507
13;506
14;505
15;507
0;508
1;508
2;506
3;505
4;503
5;500
6;499
7;503
8;506
9;508
10;509
11;510
12;509
13;508
14;507
15;507
0;508
1;509
2;508
3;507
4;504
5;501
6;498
7;498
8;501
9;505
10;507
11;509
12;509
13;508
14;506
15;506
0;508
1;508
2;508
3;507
4;505
5;503
6;499
7;496
8;498
9;502
10;505
11;507
12;508
13;508
14;507
15;505
0;505
1;507
2;508
3;506
4;505
5;503
6;500
7;497
8;497
9;500
10;504
11;506
12;508
13;509
14;508
15;507
0;506
1;507
2;510
3;511
4;510
5;508
6;506
7;503
8;500
9;500
10;504
11;506
12;508
13;510
14;511
15;510
0;508
1;507
2;508
3;509
4;510
5;508
6;507
7;504
8;500
9;497
10;499
11;503
12;506
13;508
14;510
15;510
0;509
1;509
2;508
3;510
4;512
5;512
6;511
7;510
8;508
9;505
10;504
11;508
12;511
13;514
14;515
15;516
0;515
1;514
2;512
3;512
4;515
5;516
6;515
7;513
8;511
9;508
10;505
11;505
12;508
13;511
14;512
15;513
0;513
1;512
2;509
3;508
4;509
5;509
6;509
7;506
8;504
9;500
10;497
11;494
12;496
13;499
14;502
15;504
0;505
1;504
2;504
3;503
4;503
5;504
6;506
7;506
8;504
9;503
10;499
11;496
12;495
13;498
14;502
15;504
0;505
1;506
2;505
3;503
4;502
5;502
6;504
7;504
8;504
9;502
10;500
11;497
12;494
13;495
14;498
15;502
0;503
1;505
2;505
3;504
4;502
5;502
6;503
7;505
8;505
9;504
10;502
11;500
12;496
13;494
14;495
15;499
0;502
1;504
2;504
3;504
4;503
5;501
6;502
7;504
8;505
9;505
10;503
11;500
12;498
13;495
14;495
15;498
0;502
1;505
2;506
3;508
4;508
5;507
6;508
7;509
8;510
9;511
10;510
11;510
12;508
13;506
14;505
15;507
0;513
1;518
2;523
3;527
4;532
5;536
6;539
7;541
8;545
9;549
10;552
11;553
12;553
13;551
14;544
15;538
0;535
1;533
2;531
3;527
4;524
5;518
6;512
7;508
8;506
9;507
10;506
11;504
12;499
13;492
14;485
15;476
0;470
1;468
2;469
3;470
4;469
5;469
6;465
7;463
8;459
9;457
10;456
11;455
12;453
13;452
14;450
15;448
0;447
1;449
2;454
3;459
4;463
5;466
6;469
7;470
8;470
9;471
10;475
11;479
12;481
13;483
14;483
15;482
0;481
1;481
2;484
3;490
4;495
5;500
6;504
7;504
8;504
9;505
10;507
11;509
12;511
13;512
14;511
15;511
0;509
1;506
2;505
3;508
4;513
5;516
6;518
7;519
8;519
9;518
10;517
11;517
12;518
13;520
14;519
15;517
0;516
1;513
2;511
3;512
4;516
5;519
6;521
7;523
8;523
9;521
10;519
11;519
12;521
13;523
14;523
15;521
0;520
1;517
2;514
3;512
4;513
5;516
6;519
7;521
8;523
9;523
10;521
11;519
12;519
13;522
14;523
15;524
0;522
1;520
2;518
3;514
4;513
5;516
6;519
7;522
8;523
9;524
10;524
11;523
12;522
13;523
14;524
15;525
0;524
1;523
2;520
3;517
4;514
5;515
6;519
7;521
8;524
9;525
10;525
11;523
12;522
13;522
14;524
15;524
0;525
1;524
2;523
3;520
4;518
5;515
6;517
7;520
8;523
9;524
10;525
11;524
12;523
13;521
14;521
15;523
0;524
1;523
2;522
3;520
4;518
5;514
6;513
7;518
8;521
9;525
10;527
11;527
12;526
13;525
14;525
15;526
0;528
1;529
2;528
3;527
4;526
5;523
6;520
7;520
8;524
9;527
10;530
11;532
12;532
13;531
14;530
15;530
0;532
1;533
2;534
3;533
4;532
5;529
6;525
7;523
8;525
9;529
10;533
11;535
12;537
13;535
14;533
15;531
0;532
1;534
2;535
3;533
4;531
5;529
6;526
7;523
8;522
9;525
10;528
11;531
12;533
13;533
14;532
15;530
0;527
1;527
2;529
3;528
4;527
5;527
6;523
7;519
8;516
9;516
10;519
11;522
12;523
13;524
14;523
15;521
0;518
1;516
2;517
3;518
4;517
5;515
6;512
7;508
8;503
9;502
10;503
11;505
12;507
13;508
14;507
15;505
0;504
1;501
2;500
3;501
4;502
5;500
6;498
7;495
8;491
9;487
10;485
11;488
12;491
13;493
14;494
15;493
0;492
1;489
2;487
3;486
4;488
5;488
6;487
7;486
8;480
9;477
10;474
11;472
12;476
13;480
14;483
15;484
0;485
1;485
2;483
3;483
4;485
5;487
6;487
7;486
8;484
9;482
10;478
11;476
12;475
13;479
14;483
15;486
0;486
1;487
2;485
3;483
4;483
5;485
6;487
7;487
8;486
9;484
10;482
11;479
12;478
13;481
14;483
15;486
0;488
1;489
2;489
3;486
4;486
5;486
6;487
7;487
8;487
9;487
10;485
11;483
12;480
13;477
14;481
15;486
0;487
1;489
2;491
3;490
4;488
5;488
6;490
7;492
8;490
9;489
10;488
11;486
12;484
13;481
14;483
15;487
0;492
1;493
2;494
3;494
4;494
5;492
6;493
7;494
8;496
9;496
10;494
11;491
12;487
13;485
14;483
15;484
0;487
1;490
2;492
3;494
4;495
5;494
6;493
7;495
8;496
9;496
10;496
11;494
12;492
13;490
14;487
15;482
0;487
1;492
2;495
3;498
4;500
5;500
6;498
7;497
8;499
9;500
10;498
11;499
12;499
13;497
14;493
15;492
0;494
1;497
2;500
3;502
4;503
5;503
6;502
7;501
8;500
9;502
10;502
11;502
12;501
13;499
14;497
15;492
0;492
1;496
2;500
3;503
4;505
5;506
6;504
7;502
8;500
9;504
10;507
11;507
12;504
13;502
14;500
15;497
0;496
1;498
2;502
3;505
4;505
5;506
6;508
7;507
8;505
9;506
10;508
11;508
12;510
13;509
14;507
15;503
0;500
1;497
2;495
3;500
4;505
5;506
6;506
7;507
8;505
9;503
10;503
11;506
12;508
13;505
14;505
15;504
0;501
1;497
2;495
3;497
4;501
5;504
6;506
7;506
8;505
9;504
10;504
11;506
12;508
13;505
14;504
15;503
0;502
1;499
2;497
3;493
4;497
5;501
6;507
7;509
8;510
9;508
10;507
11;507
12;509
13;510
14;510
15;508
0;505
1;502
2;500
3;497
4;497
5;502
6;507
7;508
8;508
9;508
10;507
11;508
12;508
13;509
14;511
15;510
0;508
1;506
2;502
3;499
4;497
5;501
6;505
7;509
8;510
9;509
10;508
11;505
12;505
13;507
14;509
15;509
0;508
1;508
2;506
3;502
4;499
5;494
6;498
7;502
8;506
9;508
10;508
11;507
12;506
13;507
14;509
15;510
0;510
1;508
2;507
3;506
4;502
5;499
6;499
7;504
8;507
9;508
10;510
11;509
12;509
13;507
14;508
15;509
0;508
1;510
2;509
3;507
4;505
5;501
6;499
7;499
8;504
9;509
10;510
11;511
12;510
13;510
14;509
15;510
0;510
1;511
2;510
3;509
4;507
5;503
6;501
7;498
8;503
9;505
10;507
11;508
12;509
13;509
14;507
15;507
0;509
1;512
2;511
3;510
4;509
5;506
6;501
7;501
8;501
9;504
10;508
11;511
12;513
13;513
14;512
15;512
0;514
1;515
2;515
3;513
4;510
5;508
6;505
7;502
8;500
9;504
10;508
11;510
12;511
13;512
14;512
15;510
0;510
1;511
2;512
3;513
4;511
5;511
6;508
7;505
8;502
9;502
10;507
11;510
12;512
13;514
14;513
15;513
0;513
1;513
2;516
3;518
4;518
5;515
6;513
7;510
8;505
9;504
10;506
11;510
12;512
13;514
14;514
15;514
0;514
1;513
2;514
3;516
4;517
5;515
6;512
7;512
8;511
9;508
10;507
11;512
12;516
13;518
14;517
15;518
0;517
1;515
2;515
3;516
4;518
5;519
6;518
7;516
8;513
9;510
10;509
11;502
12;506
13;510
14;512
15;513
0;514
1;512
2;510
3;508
4;509
5;512
6;511
7;509
8;505
9;503
10;498
11;497
12;499
13;502
14;506
15;507
0;510
1;508
2;505
3;503
4;504
5;506
6;508
7;506
8;503
9;502
10;500
11;497
12;493
13;496
14;501
15;505
0;506
1;506
2;505
3;503
4;500
5;502
6;507
7;508
8;505
9;505
10;502
11;500
12;496
13;496
14;498
15;501
0;503
1;505
2;504
3;502
4;500
5;499
6;502
7;505
8;502
9;500
10;499
11;496
12;495
13;496
14;501
15;503
0;505
1;505
2;504
3;504
4;504
5;503
6;502
7;503
8;504
9;504
10;503
11;500
12;498
13;497
14;496
15;499
0;504
1;504
2;505
3;507
4;504
5;501
6;504
7;505
8;508
9;507
10;507
11;505
12;504
13;499
14;499
15;495
0;501
1;507
2;511
3;515
4;519
5;519
6;519
7;522
8;525
9;527
10;530
11;534
12;537
13;537
14;536
15;538
0;542
1;546
2;548
3;547
4;547
5;544
6;543
7;539
8;537
9;538
10;535
11;531
12;531
13;528
14;522
15;513
0;508
1;507
2;502
3;499
4;493
5;490
6;485
7;480
8;477
9;474
10;473
11;470
12;463
13;460
14;455
15;451
0;449
1;453
2;457
3;462
4;467
5;470
6;472
7;473
8;473
9;474
10;477
11;481
12;485
13;485
14;486
15;484
0;481
1;480
2;484
3;489
4;492
5;495
6;496
7;499
8;499
9;496
10;497
11;503
12;504
13;506
14;505
15;503
0;500
1;498
2;496
3;499
4;507
5;511
6;512
7;515
8;515
9;515
10;513
11;515
12;516
13;513
14;515
15;515
0;512
1;510
2;508
3;509
4;513
5;517
6;519
7;519
8;520
9;519
10;519
11;521
12;524
13;523
14;519
15;519
0;519
1;517
2;513
3;513
4;513
5;517
6;519
7;522
8;524
9;523
10;523
11;522
12;523
13;524
14;522
15;521
0;521
1;518
2;515
3;512
4;511
5;515
6;517
7;516
8;517
9;517
10;517
11;517
12;518
13;519
14;519
15;521
0;520
1;521
2;519
3;514
4;513
5;515
6;517
7;522
8;524
9;525
10;524
11;522
12;519
13;521
14;524
15;525
0;524
1;523
2;521
3;518
4;516
5;513
6;516
7;521
8;524
9;524
10;524
11;524
12;523
13;523
14;524
15;525
0;527
1;527
2;526
3;525
4;522
5;518
6;515
7;519
8;525
9;528
10;529
11;528
12;525
13;524
14;524
15;529
0;533
1;531
2;531
3;529
4;527
5;526
6;524
7;524
8;526
9;530
10;535
11;536
12;535
13;536
14;536
15;537
0;536
1;536
2;535
3;535
4;535
5;532
6;529
7;529
8;529
9;534
10;537
11;539
12;540
13;542
14;540
15;539
0;540
1;544
2;544
3;542
4;538
5;536
6;534
7;531
8;529
9;531
10;535
11;538
12;539
13;540
14;538
15;535
0;535
1;534
2;534
3;532
4;532
5;532
6;528
7;524
8;519
9;520
10;523
11;526
12;526
13;527
14;526
15;524
0;522
1;521
2;522
3;521
4;520
5;519
6;519
7;514
8;511
9;507
10;506
11;511
12;511
13;511
14;510
15;509
0;508
1;505
2;504
3;506
4;507
5;503
6;499
7;498
8;495
9;491
10;491
11;494
12;497
13;499
14;499
15;499
0;496
1;492
2;491
3;493
4;493
5;494
6;492
7;490
8;487
9;482
10;478
11;477
12;483
13;488
14;489
15;492
0;490
1;487
2;484
3;484
4;487
5;489
6;488
7;487
8;483
9;480
10;478
11;476
12;476
13;481
14;484
15;484
0;485
1;483
2;483
3;484
4;485
5;488
6;488
7;485
8;485
9;482
10;479
11;479
12;481
13;483
14;481
15;485
0;484
1;483
2;483
3;482
4;483
5;486
6;487
7;487
8;488
9;490
10;490
11;488
12;485
13;485
14;488
15;491
0;493
1;494
2;494
3;494
4;493
5;489
6;492
7;494
8;493
9;491
10;490
11;487
12;482
13;481
14;481
15;487
0;489
1;493
2;492
3;492
4;492
5;493
6;496
7;495
8;494
9;494
10;495
11;492
12;492
13;489
14;487
15;490
0;495
1;499
2;501
3;500
4;498
5;498
6;499
7;499
8;500
9;500
10;499
11;500
12;499
13;496
14;494
15;492
0;497
1;501
2;504
3;507
4;508
5;506
6;502
7;502
8;504
9;504
10;502
11;500
12;504
13;499
14;495
15;495
0;496
1;498
2;503
3;504
4;508
5;503
6;503
7;501
8;502
9;503
10;504
11;503
12;504
13;504
14;503
15;502
0;497
1;501
2;503
3;504
4;507
5;509
6;510
7;510
8;509
9;508
10;505
11;503
12;502
13;499
14;496
15;492
0;488
1;495
2;498
3;503
4;507
5;511
6;512
7;511
8;510
9;512
10;514
11;515
12;514
13;512
14;509
15;504
0;498
1;497
2;500
3;505
4;505
5;504
6;508
7;506
8;505
9;504
10;508
11;513
12;516
13;514
14;509
15;508
0;504
1;499
2;498
3;503
4;505
5;507
6;510
7;509
8;504
9;503
10;505
11;511
12;515
13;514
14;508
15;508
0;510
1;507
2;505
3;506
4;507
5;505
6;504
7;506
8;506
9;509
10;506
11;504
12;505
13;506
14;507
15;506
0;504
1;503
2;504
3;510
4;511
5;514
6;518
7;516
8;515
9;514
10;513
11;511
12;510
13;515
14;518
15;514
0;509
1;504
2;501
3;499
4;499
5;510
6;519
7;519
8;520
9;516
10;514
11;508
12;508
13;510
14;508
15;507
0;507
1;507
2;507
3;505
4;502
5;501
6;505
7;508
8;509
9;512
10;512
11;512
12;512
13;512
14;515
15;515
0;514
1;517
2;517
3;514
4;512
5;511
6;511
7;514
8;522
9;524
10;521
11;519
12;516
13;512
14;509
15;515
0;515
1;513
2;512
3;509
4;505
5;502
6;504
7;508
8;513
9;517
10;519
11;517
12;522
13;521
14;521
15;521
0;527
1;525
2;522
3;524
4;527
5;524
6;518
7;507
8;510
9;517
10;524
11;525
12;525
13;521
14;520
15;523
0;519
1;516
2;510
3;507
4;507
5;507
6;505
7;504
8;506
9;512
10;514
11;519
12;518
13;512
14;512
15;509
0;511
1;516
2;517
3;515
4;512
5;511
6;511
7;507
8;497
9;502
10;508
11;508
12;509
13;511
14;509
15;508
0;511
1;511
2;512
3;510
4;509
5;506
6;506
7;502
8;496
9;498
10;504
11;506
12;510
13;511
14;508
15;505
0;507
1;511
2;514
3;515
4;511
5;511
6;504
7;503
8;496
9;495
10;501
11;508
12;513
13;510
14;504
15;503
0;501
1;501
2;504
3;508
4;515
5;515
6;514
7;513
8;511
9;506
10;498
11;505
12;509
13;509
14;507
15;509
0;509
1;510
2;511
3;510
4;513
5;512
6;514
7;515
8;515
9;514
10;513
11;512
12;513
13;512
14;507
15;504
0;503
1;503
2;505
3;512
4;516
5;518
6;523
7;521
8;521
9;524
10;524
11;528
12;531
13;536
14;539
15;540
0;544
1;550
2;553
3;554
4;558
5;559
6;560
7;557
8;556
9;552
10;546
11;542
12;539
13;540
14;541
15;540
0;533
1;532
2;533
3;528
4;520
5;518
6;519
7;516
8;505
9;499
10;495
11;488
12;484
13;483
14;485
15;480
0;477
1;476
2;470
3;467
4;473
5;478
6;483
7;484
8;483
9;483
10;488
11;481
12;478
13;484
14;484
15;481
0;486
1;491
2;495
3;493
4;488
5;487
6;492
7;497
8;500
9;499
10;499
11;499
12;496
13;491
14;491
15;499
0;506
1;509
2;505
3;504
4;508
5;513
6;515
7;517
8;524
9;523
10;523
11;524
12;520
13;515
14;510
15;507
0;513
1;520
2;522
3;523
4;521
5;521
6;520
7;519
8;519
9;520
10;520
11;518
12;511
13;511
14;513
15;514
0;518
1;521
2;521
3;533
4;536
5;535
6;526
7;520
8;519
9;516
10;515
11;507
12;504
13;510
14;519
15;523
0;525
1;530
2;531
3;527
4;521
5;520
6;521
7;520
8;525
9;528
10;533
11;532
12;529
13;529
14;529
15;524
0;513
1;513
2;519
3;525
4;526
5;531
6;535
7;531
8;528
9;523
10;519
11;524
12;524
13;523
14;519
15;517
0;513
1;514
2;530
3;535
4;532
5;532
6;535
7;531
8;533
9;533
10;532
11;537
12;538
13;534
14;528
15;527
0;521
1;517
2;516
3;518
4;524
5;524
6;523
7;524
8;527
9;531
10;533
11;534
12;536
13;533
14;536
15;536
0;536
1;536
2;531
3;531
4;535
5;532
6;535
7;535
8;526
9;531
10;540
11;534
12;530
13;527
14;526
15;524
0;522
1;527
2;527
3;527
4;531
5;531
6;532
7;534
8;536
9;535
10;531
11;531
12;537
13;542
14;540
15;542
0;544
1;543
2;537
3;531
4;532
5;538
6;545
7;545
8;543
9;543
10;544
11;538
12;536
13;536
14;537
15;534
0;529
1;524
2;521
3;521
4;524
5;531
6;539
7;543
8;539
9;537
10;534
11;533
12;528
13;523
14;524
15;527
0;529
1;528
2;525
3;521
4;516
5;515
6;517
7;520
8;524
9;523
10;519
11;517
12;517
13;516
14;513
15;513
0;516
1;516
2;511
3;503
4;497
5;491
6;491
7;494
8;497
9;506
10;513
11;514
12;510
13;501
14;503
15;502
0;503
1;504
2;503
3;497
4;495
5;492
6;488
7;487
8;488
9;494
10;495
11;492
12;494
13;496
14;495
15;495
0;495
1;485
2;480
3;485
4;483
5;480
6;480
7;476
8;482
9;488
10;497
11;494
12;493
13;493
14;492
15;487
0;485
1;483
2;485
3;480
4;473
5;473
6;471
7;471
8;472
9;479
10;481
11;480
12;481
13;487
14;489
15;487
0;490
1;491
2;490
3;488
4;487
5;485
6;484
7;478
8;476
9;483
10;489
11;496
12;502
13;502
14;495
15;488
0;488
1;492
2;493
3;498
4;502
5;502
6;501
7;497
8;492
9;488
10;489
11;492
12;491
13;491
14;491
15;488
0;490
1;495
2;501
3;505
4;501
5;498
6;499
7;495
8;490
9;491
10;488
11;492
12;497
13;500
14;500
15;500
0;496
1;495
2;494
3;495
4;499
5;501
6;500
7;499
8;497
9;491
10;483
11;482
12;486
13;492
14;500
15;505
0;508
1;509
2;507
3;506
4;508
5;507
6;504
7;502
8;499
9;494
10;491
11;487
12;490
13;494
14;499
15;502
0;503
1;506
2;508
3;505
4;505
5;509
6;508
7;503
8;500
9;501
10;500
11;499
12;496
13;495
14;497
15;503
0;509
1;514
2;519
3;516
4;516
5;517
6;518
7;520
8;518
9;514
10;511
11;509
12;502
13;498
14;500
15;505
0;511
1;512
2;512
3;509
4;508
5;509
6;508
7;508
8;509
9;504
10;503
11;504
12;500
13;501
14;505
15;509
0;511
1;510
2;512
3;514
4;509
5;508
6;510
7;511
8;507
9;503
10;504
11;501
12;502
13;502
14;504
15;510
0;512
1;512
2;515
3;515
4;511
5;507
6;505
7;505
8;507
9;506
10;504
11;503
12;502
13;500
14;497
15;499
0;507
1;512
2;513
3;512
4;512
5;508
6;506
7;507
8;509
9;511
10;513
11;510
12;511
13;509
14;506
15;501
0;504
1;505
2;508
3;504
4;502
5;501
6;500
7;506
8;515
9;516
10;516
11;516
12;515
13;509
14;506
15;503
0;499
1;500
2;505
3;511
4;513
5;516
6;518
7;513
8;509
9;510
10;511
11;512
12;512
13;509
14;508
15;504
0;504
1;505
2;510
3;512
4;516
5;518
6;523
7;525
8;520
9;517
10;521
11;524
12;525
13;519
14;516
15;510
0;503
1;502
2;505
3;509
4;512
5;515
6;515
7;516
8;516
9;512
10;509
11;508
12;510
13;508
14;507
15;505
0;504
1;504
2;504
3;507
4;509
5;510
6;513
7;511
8;507
9;508
10;508
11;508
12;508
13;502
14;497
15;495
0;494
1;494
2;492
3;490
4;493
5;496
6;500
7;496
8;496
9;495
10;493
11;498
12;506
13;512
14;509
15;505
0;502
1;499
2;496
3;493
4;496
5;497
6;500
7;503
8;505
9;502
10;500
11;501
12;503
13;506
14;506
15;505
0;504
1;500
2;501
3;499
4;498
5;500
6;502
7;504
8;503
9;503
10;500
11;499
12;500
13;504
14;510
15;512
0;508
1;506
2;504
3;499
4;494
5;492
6;494
7;497
8;499
9;498
10;502
11;503
12;502
13;502
14;501
15;500
0;499
1;499
2;497
3;495
4;496
5;498
6;507
7;511
8;514
9;512
10;511
11;507
12;502
13;498
14;500
15;502
0;503
1;503
2;501
3;500
4;498
5;498
6;502
7;511
8;519
9;523
10;527
11;528
12;530
13;533
14;539
15;542
0;544
1;544
2;544
3;542
4;537
5;533
6;532
7;534
8;540
9;535
10;532
11;528
12;525
13;518
14;515
15;519
0;524
1;521
2;515
3;511
4;510
5;508
6;505
7;502
8;498
9;491
10;482
11;480
12;475
13;469
14;465
15;467
0;469
1;471
2;475
3;474
4;470
5;467
6;463
7;461
8;460
9;468
10;472
11;478
12;481
13;482
14;482
15;481
0;481
1;483
2;484
3;481
4;480
5;478
6;479
7;478
8;477
9;480
10;487
11;488
12;490
13;493
14;496
15;494
0;492
1;495
2;502
3;504
4;505
5;505
6;501
7;498
8;494
9;494
10;500
11;503
12;505
13;508
14;510
15;507
0;506
1;506
2;507
3;507
4;509
5;506
6;506
7;505
8;500
9;498
10;499
11;503
12;504
13;507
14;510
15;511
0;512
1;511
2;513
3;517
4;518
5;518
6;516
7;512
8;511
9;508
10;506
11;503
12;506
13;509
14;511
15;509
0;508
1;510
2;511
3;512
4;509
5;510
6;508
7;505
8;509
9;511
10;511
11;512
12;518
13;521
14;517
15;516
0;515
1;516
2;518
3;516
4;511
5;507
6;507
7;506
8;505
9;500
10;500
11;500
12;501
13;509
14;511
15;511
0;511
1;512
2;513
3;512
4;510
5;513
6;515
7;516
8;520
9;523
10;519
11;513
12;513
13;512
14;516
15;519
0;520
1;518
2;516
3;519
4;517
5;515
6;514
7;515
8;516
9;517
10;516
11;512
12;511
13;511
14;512
15;515
0;515
1;515
2;519
3;519
4;515
5;514
6;515
7;515
8;516
9;517
10;518
11;518
12;515
13;514
14;516
15;519
0;522
1;524
2;522
3;522
4;520
5;519
6;522
7;522
8;524
9;524
10;524
11;521
12;521
13;522
14;521
15;525
0;526
1;524
2;524
3;527
4;528
5;531
6;530
7;530
8;530
9;531
10;530
11;527
12;523
13;517
14;512
15;509
0;511
1;512
2;514
3;515
4;516
5;516
6;516
7;515
8;514
9;513
10;512
11;510
12;511
13;511
14;512
15;510
0;509
1;511
2;513
3;515
4;509
5;506
6;506
7;505
8;505
9;504
10;505
11;503
12;503
13;499
14;491
15;485
0;482
1;481
2;482
3;484
4;486
5;485
6;482
7;481
8;480
9;480
10;481
11;481
12;482
13;482
14;479
15;475
0;473
1;472
2;476
3;477
4;479
5;479
6;481
7;479
8;479
9;480
10;478
11;478
12;478
13;476
14;473
15;468
0;465
1;464
2;466
3;471
4;476
5;482
6;483
7;481
8;480
9;479
10;480
11;481
12;479
13;477
14;476
15;472
0;468
1;464
2;462
3;464
4;473
5;479
6;478
7;479
8;479
9;482
10;484
11;487
12;487
13;482
14;479
15;475
0;473
1;470
2;468
3;470
4;472
5;476
6;479
7;480
8;480
9;478
10;475
11;475
12;476
13;476
14;474
15;475
0;476
1;473
2;469
3;467
4;468
5;473
6;480
7;481
8;482
9;484
10;483
11;482
12;483
13;485
14;487
15;487
0;485
1;480
2;476
3;474
4;475
5;476
6;480
7;484
8;487
9;489
10;488
11;485
12;482
13;483
14;482
15;482
0;482
1;480
2;483
3;483
4;481
5;478
6;480
7;483
8;487
9;489
10;487
11;484
12;485
13;486
14;487
15;491
0;495
1;495
2;490
3;489
4;488
5;484
6;482
7;486
8;494
9;499
10;501
11;503
12;503
13;502
14;499
15;497
0;494
1;490
2;489
3;487
4;486
5;484
6;479
7;481
8;483
9;487
10;491
11;491
12;490
13;489
14;489
15;491
0;493
1;492
2;492
3;491
4;491
5;488
6;485
7;487
8;492
9;494
10;496
11;499
12;498
13;497
14;495
15;492
0;492
1;491
2;486
3;485
4;484
5;481
6;478
7;478
8;486
9;494
10;497
11;500
12;500
13;499
14;496
15;497
0;496
1;498
2;498
3;493
4;489
5;487
6;483
7;481
8;480
9;486
10;493
11;497
12;496
13;499
14;499
15;496
0;495
1;497
2;500
3;504
4;503
5;502
6;499
7;497
8;495
9;496
10;496
11;495
12;495
13;496
14;497
15;497
0;497
1;496
2;496
3;498
4;497
5;494
6;493
7;490
8;487
9;486
10;486
11;491
12;497
13;498
14;498
15;499
0;502
1;502
2;503
3;506
4;506
5;502
6;496
7;491
8;487
9;486
10;484
11;488
12;496
13;495
14;496
15;497
0;494
1;494
2;497
3;499
4;501
5;501
6;499
7;495
8;494
9;493
10;493
11;491
12;494
13;496
14;498
15;497
0;498
1;496
2;494
3;497
4;505
5;508
6;510
7;510
8;508
9;507
10;504
11;504
12;502
13;505
14;508
15;509
0;509
1;507
2;505
3;503
4;502
5;502
6;501
7;501
8;498
9;497
10;492
11;487
12;486
13;490
14;493
15;496
0;498
1;497
2;496
3;494
4;492
5;493
6;495
7;496
8;495
9;492
10;490
11;489
12;485
13;482
14;489
15;494
0;494
1;495
2;497
3;497
4;497
5;496
6;497
7;500
8;499
9;498
10;495
11;489
12;482
13;481
14;489
15;494
0;494
1;496
2;496
3;493
4;491
5;488
6;490
7;492
8;493
9;491
10;489
11;487
12;483
13;480
14;481
15;486
0;492
1;496
2;498
3;500
4;501
5;499
6;498
7;499
8;500
9;501
10;498
11;496
12;494
13;491
14;489
15;492
0;497
1;499
2;500
3;500
4;499
5;498
6;496
7;494
8;495
9;495
10;496
11;495
12;494
13;491
14;490
15;492
0;495
1;501
2;502
3;500
4;501
5;500
6;496
7;494
8;496
9;498
10;501
11;501
12;497
13;495
14;494
15;491
0;494
1;499
2;505
3;511
4;513
5;515
6;516
7;517
8;522
9;530
10;534
11;535
12;537
13;537
14;537
15;533
0;529
1;528
2;531
3;533
4;534
5;533
6;533
7;531
8;530
9;529
10;530
11;527
12;524
13;522
14;516
15;510
0;504
1;501
2;502
3;503
4;505
5;504
6;500
7;494
8;489
9;485
10;481
11;479
12;476
13;470
14;464
15;460
0;456
1;456
2;456
3;460
4;463
5;468
6;472
7;473
8;472
9;474
10;476
11;480
12;481
13;480
14;480
15;478
0;478
1;479
2;476
3;479
4;482
5;487
6;493
7;498
8;498
9;496
10;497
11;497
12;499
13;500
14;500
15;498
0;497
1;495
2;492
3;492
4;495
5;499
6;504
7;503
8;503
9;503
10;502
11;501
12;503
13;504
14;506
15;505
0;502
1;500
2;498
3;498
4;499
5;505
6;509
7;512
8;512
9;509
10;505
11;503
12;504
13;508
14;511
15;510
0;512
1;508
2;505
3;501
4;498
5;502
6;506
7;507
8;509
9;511
10;509
11;508
12;505
13;506
14;512
15;515
0;516
1;513
2;508
3;505
4;504
5;505
6;507
7;511
8;512
9;512
10;513
11;511
12;508
13;507
14;508
15;512
0;512
1;514
2;513
3;512
4;508
5;505
6;505
7;507
8;511
9;513
10;515
11;516
12;517
13;517
14;516
15;515
0;515
1;514
2;512
3;511
4;510
5;508
6;505
7;499
8;503
9;506
10;509
11;511
12;511
13;508
14;507
15;508
0;511
1;513
2;514
3;511
4;510
5;507
6;504
7;505
8;509
9;516
10;518
11;520
12;521
13;519
14;518
15;517
0;519
1;520
2;520
3;519
4;517
5;516
6;515
7;515
8;514
9;518
10;520
11;520
12;519
13;519
14;515
15;517
0;519
1;520
2;521
3;523
4;522
5;520
6;516
7;512
8;510
9;512
10;517
11;520
12;523
13;524
14;524
15;522
0;519
1;519
2;523
3;524
4;525
5;526
6;527
7;524
8;519
9;519
10;524
11;526
12;526
13;531
14;530
15;528
0;525
1;520
2;521
3;520
4;518
5;516
6;514
7;513
8;509
9;504
10;503
11;507
12;511
13;512
14;512
15;513
0;512
1;510
2;508
3;511
4;511
5;509
6;506
7;502
8;499
9;494
10;491
11;494
12;497
13;501
14;501
15;501
0;498
1;495
2;493
3;494
4;497
5;499
6;496
7;494
8;492
9;489
10;484
11;481
12;482
13;485
14;488
15;488
0;487
1;486
2;483
3;480
4;481
5;485
6;487
7;484
8;484
9;482
10;480
11;478
12;479
13;483
14;486
15;484
0;485
1;484
2;481
3;479
4;477
5;479
6;481
7;482
8;479
9;475
10;475
11;474
12;473
13;476
14;480
15;484
0;484
1;483
2;484
3;484
4;483
5;483
6;484
7;486
8;484
9;481
10;480
11;477
12;476
13;476
14;480
15;481
0;483
1;487
2;488
3;487
4;484
5;480
6;483
7;486
8;491
9;492
10;488
11;486
12;481
13;476
14;477
15;481
0;484
1;483
2;482
3;481
4;481
5;481
6;482
7;486
8;487
9;488
10;492
11;492
12;488
13;484
14;483
15;487
0;489
1;492
2;494
3;493
4;491
5;489
6;491
7;492
8;495
9;496
10;494
11;491
12;487
13;482
14;480
15;481
0;485
1;489
2;493
3;496
4;497
5;496
6;495
7;493
8;493
9;493
10;493
11;492
12;490
13;487
14;482
15;483
0;487
1;494
2;499
3;499
4;500
5;500
6;496
7;492
8;491
9;494
10;496
11;494
12;492
13;492
14;491
15;487
0;488
1;491
2;493
3;495
4;497
5;499
6;499
7;499
8;498
9;497
10;499
11;499
12;499
13;499
14;497
15;495
0;490
1;488
2;494
3;498
4;501
5;500
6;499
7;499
8;498
9;497
10;498
11;501
12;500
13;498
14;495
15;495
0;494
1;491
2;491
3;496
4;498
5;499
6;501
7;501
8;499
9;496
10;496
11;499
12;502
13;502
14;501
15;498
0;495
1;489
2;486
3;490
4;496
5;500
6;501
7;501
8;500
9;499
10;499
11;500
12;501
13;504
14;504
15;502
0;504
1;503
2;499
3;496
4;498
5;499
6;500
7;501
8;502
9;501
10;499
11;496
12;498
13;498
14;500
15;498
0;495
1;493
2;489
3;487
4;489
5;493
6;496
7;496
8;497
9;500
10;503
11;503
12;503
13;503
14;502
15;502
0;501
1;498
2;494
3;488
4;487
5;488
6;493
7;499
8;503
9;504
10;504
11;500
12;497
13;498
14;499
15;500
0;500
1;501
2;503
3;501
4;500
5;496
6;496
7;498
8;499
9;497
10;501
11;502
12;500
13;500
14;503
15;506
0;508
1;506
2;505
3;503
4;499
5;496
6;498
7;501
8;504
9;508
10;508
11;507
12;504
13;503
14;503
15;505
0;505
1;506
2;505
3;501
4;498
5;495
6;493
7;496
8;501
9;505
10;508
11;508
12;506
13;503
14;501
15;504
0;504
1;506
2;504
3;504
4;502
5;498
6;494
7;494
8;499
9;505
10;507
11;507
12;505
13;502
14;500
15;502
0;503
1;504
2;505
3;505
4;505
5;504
6;500
7;498
8;498
9;499
10;504
11;508
12;508
13;507
14;504
15;503
0;504
1;508
2;511
3;511
4;508
5;507
6;506
7;503
8;502
9;504
10;506
11;509
12;510
13;511
14;512
15;510
0;508
1;508
2;508
3;507
4;504
5;504
6;502
7;498
8;492
9;490
10;493
11;496
12;499
13;502
14;503
15;500
0;499
1;499
2;502
3;504
4;504
5;504
6;502
7;501
8;498
9;498
10;499
11;502
12;504
13;505
14;504
15;504
0;502
1;500
2;500
3;501
4;503
5;503
6;499
7;496
8;492
9;489
10;488
11;491
12;492
13;494
14;497
15;500
0;501
1;499
2;498
3;499
4;502
5;504
6;507
7;505
8;502
9;499
10;494
11;489
12;492
13;499
14;503
15;506
0;505
1;503
2;498
3;498
4;502
5;504
6;505
7;504
8;501
9;499
10;496
11;495
12;498
13;500
14;502
15;503
0;500
1;499
2;499
3;498
4;498
5;500
6;502
7;505
8;502
9;499
10;496
11;494
12;492
13;496
14;498
15;500
0;500
1;500
2;501
3;502
4;502
5;503
6;505
7;508
8;510
9;512
10;515
11;516
12;519
13;524
14;532
15;538
0;543
1;548
2;551
3;550
4;547
5;544
6;543
7;543
8;541
9;538
10;536
11;531
12;529
13;527
14;528
15;529
0;533
1;534
2;530
3;527
4;525
5;520
6;516
7;515
8;513
9;511
10;504
11;498
12;491
13;487
14;482
15;480
0;479
1;480
2;479
3;478
4;476
5;474
6;472
7;472
8;473
9;473
10;472
11;472
12;474
13;471
14;469
15;470
0;472
1;476
2;480
3;482
4;483
5;483
6;480
7;478
8;480
9;482
10;484
11;486
12;486
13;487
14;488
15;488
0;491
1;495
2;496
3;499
4;503
5;505
6;505
7;503
8;503
9;507
10;506
11;504
12;503
13;502
14;498
15;495
0;496
1;500
2;505
3;507
4;510
5;510
6;510
7;509
8;508
9;507
10;508
11;509
12;510
13;509
14;508
15;505
0;502
1;504
2;508
3;510
4;510
5;510
6;511
7;511
8;511
9;510
10;511
11;512
12;513
13;511
14;509
15;506
0;502
1;499
2;501
3;507
4;512
5;514
6;516
7;516
8;516
9;515
10;515
11;514
12;513
13;512
14;512
15;512
0;511
1;509
2;508
3;511
4;513
5;513
6;514
7;514
8;512
9;509
10;508
11;508
12;511
13;510
14;507
15;505
0;503
1;501
2;500
3;502
4;508
5;509
6;512
7;515
8;517
9;518
10;516
11;515
12;517
13;521
14;519
15;518
0;516
1;512
2;507
3;504
4;508
5;514
6;516
7;516
8;515
9;516
10;515
11;515
12;517
13;519
14;520
15;518
0;518
1;517
2;515
3;513
4;511
5;515
6;519
7;519
8;521
9;525
10;525
11;523
12;522
13;524
14;526
15;527
0;524
1;523
2;522
3;519
4;516
5;517
6;522
7;526
8;527
9;525
10;526
11;524
12;523
13;523
14;524
15;524
0;524
1;524
2;522
3;520
4;518
5;517
6;520
7;526
8;528
9;530
10;529
11;528
12;527
13;524
14;524
15;525
0;528
1;529
2;525
3;522
4;519
5;515
6;514
7;518
8;521
9;522
10;522
11;522
12;522
13;521
14;519
15;515
0;513
1;513
2;512
3;510
4;508
5;505
6;504
7;501
8;503
9;508
10;510
11;508
12;507
13;504
14;504
15;504
0;505
1;506
2;505
3;503
4;500
5;497
6;493
7;492
8;492
9;495
10;498
11;499
12;501
13;500
14;497
15;494
0;492
1;491
2;492
3;492
4;489
5;489
6;485
7;482
8;482
9;484
10;488
11;488
12;488
13;489
14;487
15;485
0;483
1;483
2;486
3;489
4;487
5;485
6;484
7;482
8;480
9;480
10;484
11;486
12;487
13;487
14;487
15;487
0;485
1;483
2;487
3;491
4;492
5;492
6;492
7;489
8;485
9;480
10;483
11;486
12;488
13;489
14;490
15;490
0;488
1;488
2;487
3;487
4;488
5;487
6;485
7;483
8;483
9;482
10;481
11;483
12;486
13;487
14;490
15;493
0;492
1;493
2;493
3;493
4;495
5;496
6;494
7;492
8;490
9;487
10;483
11;483
12;487
13;491
14;493
15;494
0;493
1;492
2;492
3;491
4;492
5;493
6;492
7;492
8;491
9;489
10;488
11;489
12;491
13;494
14;495
15;495
0;494
1;493
2;494
3;495
4;495
5;498
6;499
7;499
8;500
9;500
10;496
11;494
12;492
13;494
14;495
15;497
0;497
1;496
2;495
3;499
4;500
5;502
6;501
7;500
8;498
9;499
10;498
11;495
12;493
13;494
14;497
15;499
0;500
1;502
2;501
3;499
4;499
5;499
6;499
7;500
8;499
9;499
10;499
11;496
12;494
13;493
14;495
15;497
0;501
1;503
2;505
3;506
4;507
5;504
6;502
7;504
8;504
9;504
10;502
11;499
12;496
13;493
14;492
15;496
0;501
1;502
2;502
3;502
4;499
5;499
6;498
7;502
8;504
9;504
10;503
11;503
12;501
13;495
14;492
15;493
0;496
1;501
2;504
3;504
4;504
5;504
6;504
7;507
8;507
9;507
10;508
11;507
12;507
13;505
14;503
15;502
0;503
1;507
2;510
3;510
4;510
5;511
6;512
7;510
8;508
9;507
10;509
11;510
12;507
13;504
14;500
15;496
0;493
1;495
2;496
3;499
4;503
5;504
6;506
7;504
8;502
9;502
10;504
11;504
12;505
13;504
14;503
15;499
0;497
1;498
2;501
3;503
4;504
5;508
6;509
7;508
8;506
9;505
10;508
11;506
12;504
13;503
14;504
15;502
0;499
1;497
2;499
3;503
4;504
5;504
6;505
7;505
8;503
9;502
10;502
11;504
12;505
13;506
14;504
15;499
0;498
1;494
2;492
3;497
4;500
5;504
6;505
7;506
8;505
9;503
10;502
11;502
12;505
13;508
14;508
15;506
0;504
1;502
2;501
3;502
4;504
5;508
6;510
7;510
8;510
9;508
10;501
11;500
12;503
13;502
14;504
15;506
0;503
1;501
2;498
3;498
4;501
5;503
6;505
7;504
8;503
9;504
10;505
11;507
12;509
13;509
14;508
15;507
0;504
1;501
2;500
3;498
4;496
5;499
6;503
7;506
8;506
9;506
10;506
11;508
12;506
13;507
14;508
15;508
0;506
1;505
2;502
3;499
4;496
5;496
6;499
7;503
8;503
9;504
10;506
11;507
12;506
13;507
14;508
15;508
0;507
1;504
2;503
3;498
4;496
5;495
6;498
7;499
8;500
9;503
10;504
11;504
12;501
13;499
14;498
15;502
0;506
1;506
2;507
3;504
4;502
5;499
6;498
7;500
8;505
9;507
10;507
11;507
12;505
13;501
14;501
15;502
0;504
1;508
2;509
3;508
4;505
5;502
6;500
7;502
8;504
9;506
10;508
11;510
12;511
13;508
14;507
15;506
0;508
1;509
2;508
3;506
4;505
5;503
6;498
7;496
8;499
9;505
10;507
11;508
12;509
13;507
14;504
15;504
0;504
1;507
2;509
3;508
4;503
5;501
6;499
7;498
8;498
9;502
10;504
11;506
12;507
13;507
14;505
15;503
0;503
1;506
2;509
3;509
4;508
5;504
6;503
7;500
8;500
9;503
10;505
11;508
12;510
13;508
14;510
15;508
0;505
1;505
2;509
3;512
4;512
5;509
6;507
7;505
8;501
9;499
10;502
11;506
12;509
13;510
14;511
15;508
0;507
1;507
2;508
3;510
4;507
5;504
6;504
7;504
8;500
9;498
10;498
11;503
12;507
13;510
14;512
15;513
0;513
1;508
2;509
3;511
4;511
5;511
6;511
7;511
8;510
9;509
10;505
11;503
12;505
13;508
14;512
15;513
0;514
1;513
2;511
3;509
4;509
5;508
6;508
7;505
8;504
9;501
10;498
11;495
12;496
13;502
14;507
15;508
0;509
1;508
2;505
3;502
4;501
5;502
6;502
7;501
8;501
9;501
10;499
11;496
12;497
13;500
14;502
15;504
0;504
1;504
2;502
3;499
4;498
5;498
6;499
7;501
8;498
9;497
10;496
11;495
12;493
13;496
14;499
15;502
0;503
1;505
2;506
3;506
4;506
5;505
6;505
7;504
8;504
9;503
10;501
11;499
12;496
13;496
14;500
15;501
0;504
1;504
2;505
3;503
4;501
5;501
6;501
7;501
8;502
9;502
10;504
11;503
12;500
13;497
14;496
15;499
0;501
1;504
2;505
3;505
4;505
5;502
6;499
7;502
8;507
9;509
10;508
11;505
12;500
13;496
14;492
15;492
0;495
1;499
2;503
3;506
4;507
5;504
6;504
7;504
8;507
9;509
10;510
11;512
12;512
13;511
14;510
15;514
0;522
1;527
2;534
3;541
4;546
5;547
6;549
7;548
8;544
9;545
10;543
11;540
12;537
13;536
14;533
15;528
0;527
1;531
2;535
3;536
4;539
5;540
6;537
7;533
8;527
9;524
10;523
11;519
12;514
13;509
14;504
15;499
0;495
1;495
2;494
3;493
4;489
5;486
6;483
7;480
8;476
9;473
10;473
11;474
12;473
13;472
14;470
15;468
0;467
1;467
2;469
3;472
4;475
5;477
6;480
7;481
8;481
9;482
10;485
11;488
12;488
13;488
14;488
15;490
0;492
1;490
2;492
3;497
4;501
5;501
6;503
7;504
8;503
9;499
10;501
11;501
12;502
13;500
14;499
15;502
0;503
1;501
2;500
3;502
4;507
5;510
6;511
7;513
8;513
9;512
10;511
11;512
12;512
13;514
14;515
15;514
0;513
1;510
2;507
3;507
4;507
5;510
6;509
7;508
8;508
9;510
10;510
11;508
12;509
13;510
14;511
15;511
0;512
1;512
2;510
3;507
4;507
5;510
6;513
7;514
8;514
9;513
10;513
11;513
12;512
13;512
14;513
15;511
0;510
1;512
2;511
3;508
4;507
5;509
6;511
7;513
8;514
9;513
10;513
11;514
12;513
13;513
14;515
15;518
0;518
1;513
2;511
3;508
4;508
5;507
6;509
7;511
8;512
9;513
10;514
11;514
12;513
13;515
14;516
15;518
0;518
1;514
2;512
3;510
4;507
5;505
6;505
7;512
8;517
9;519
10;520
11;521
12;519
13;518
14;516
15;519
0;520
1;521
2;519
3;518
4;515
5;512
6;511
7;512
8;516
9;522
10;527
11;529
12;528
13;527
14;526
15;526
0;527
1;527
2;526
3;524
4;521
5;518
6;512
7;512
8;516
9;520
10;523
11;524
12;525
13;525
14;523
15;522
0;523
1;523
2;524
3;524
4;522
5;522
6;520
7;519
8;521
9;524
10;524
11;527
12;528
13;528
14;524
15;523
0;524
1;524
2;526
3;526
4;526
5;523
6;519
7;515
8;514
9;517
10;521
11;524
12;528
13;528
14;526
15;524
0;522
1;521
2;522
3;521
4;519
5;517
6;517
7;515
8;511
9;508
10;511
11;513
12;513
13;514
14;515
15;513
0;509
1;508
2;509
3;511
4;513
5;512
6;510
7;508
8;505
9;502
10;502
11;507
12;508
13;508
14;508
15;508
0;504
1;499
2;496
3;498
4;497
5;495
6;494
7;492
8;488
9;484
10;483
11;487
12;491
13;494
14;494
15;494
0;492
1;491
2;488
3;488
4;492
5;494
6;491
7;487
8;487
9;485
10;482
11;483
12;487
13;492
14;494
15;493
0;493
1;492
2;490
3;489
4;489
5;491
6;491
7;489
8;487
9;485
10;480
11;479
12;480
13;484
14;488
15;490
0;492
1;492
2;492
3;491
4;490
5;490
6;492
7;493
8;490
9;488
10;483
11;481
12;480
13;486
14;489
15;490
0;492
1;491
2;491
3;491
4;490
5;490
6;492
7;492
8;491
9;491
10;490
11;489
12;488
13;489
14;496
15;501
0;505
1;508
2;508
3;505
4;499
5;493
6;492
7;495
8;497
9;496
10;494
11;492
12;487
13;484
14;487
15;491
0;493
1;493
2;495
3;496
4;495
5;495
6;496
7;497
8;498
9;499
10;499
11;497
12;494
13;491
14;491
15;492
0;496
1;502
2;503
3;504
4;504
5;502
6;498
7;498
8;500
9;500
10;501
11;501
12;501
13;497
14;495
15;496
0;500
1;502
2;502
3;502
4;503
5;500
6;498
7;497
8;498
9;501
10;504
11;502
12;499
13;496
14;492
15;491
0;494
1;497
2;500
3;500
4;503
5;504
6;504
7;503
8;501
9;504
10;506
11;505
12;506
13;505
14;501
15;496
0;495
1;497
2;500
3;504
4;504
5;503
6;503
7;502
8;502
9;503
10;504
11;506
12;504
13;502
14;501
15;499
0;494
1;494
2;499
3;504
4;506
5;506
6;505
7;504
8;502
9;501
10;505
11;508
12;506
13;504
14;503
15;500
0;498
1;498
2;502
3;508
4;508
5;510
6;511
7;509
8;507
9;504
10;505
11;510
12;512
13;510
14;505
15;502
0;501
1;499
2;497
3;501
4;506
5;507
6;505
7;505
8;504
9;502
10;503
11;505
12;508
13;510
14;509
15;508
0;504
1;498
2;494
3;494
4;499
5;503
6;506
7;509
8;511
9;510
10;508
11;508
12;507
13;509
14;511
15;511
0;508
1;502
2;498
3;497
4;497
5;501
6;505
7;505
8;506
9;506
10;505
11;502
12;501
13;503
14;505
15;508
0;509
1;507
2;503
3;498
4;497
5;499
6;502
7;507
8;509
9;508
10;507
11;506
12;505
13;505
14;508
15;508
0;508
1;506
2;504
3;500
4;499
5;500
6;502
7;504
8;507
9;508
10;510
11;509
12;507
13;507
14;506
15;507
0;508
1;507
2;506
3;505
4;501
5;498
6;499
7;502
8;506
9;508
10;510
11;509
12;507
13;506
14;504
15;505
0;505
1;506
2;505
3;503
4;500
5;499
6;501
7;504
8;508
9;512
10;513
11;511
12;508
13;507
14;504
15;503
0;503
1;506
2;507
3;505
4;502
5;498
6;494
7;491
8;496
9;500
10;503
11;503
12;504
13;505
14;507
15;506
0;507
1;508
2;510
3;509
4;509
5;506
6;503
7;499
8;502
9;507
10;510
11;511
12;510
13;510
14;508
15;506
0;506
1;508
2;508
3;507
4;505
5;502
6;498
7;496
8;499
9;502
10;505
11;510
12;511
13;508
14;509
15;509
0;509
1;510
2;511
3;509
4;508
5;505
6;502
7;499
8;497
9;497
10;500
11;504
12;504
13;503
14;505
15;506
0;505
1;506
2;509
3;512
4;512
5;512
6;512
7;507
8;502
9;496
10;495
11;499
12;504
13;508
14;509
15;509
0;509
1;508
2;508
3;510
4;510
5;511
6;509
7;506
8;506
9;504
10;502
11;505
12;509
13;510
14;512
15;512
0;512
1;510
2;506
3;505
4;506
5;509
6;510
7;510
8;507
9;502
10;498
11;497
12;502
13;506
14;510
15;512
0;511
1;510
2;506
3;504
4;504
5;506
6;506
7;505
8;505
9;503
10;498
11;496
12;497
13;500
14;505
15;507
0;508
1;507
2;504
3;504
4;504
5;507
6;510
7;510
8;509
9;507
10;503
11;500
12;499
13;502
14;504
15;507
0;510
1;509
2;508
3;508
4;505
5;505
6;507
7;509
8;507
9;507
10;504
11;501
12;498
13;498
14;500
15;504
0;507
1;511
2;513
3;512
4;510
5;508
6;510
7;513
8;512
9;510
10;508
11;506
12;502
13;498
14;500
15;505
0;508
1;508
2;509
3;510
4;510
5;510
6;511
7;512
8;514
9;515
10;514
11;511
12;508
13;507
14;506
15;507
0;509
1;513
2;515
3;516
4;514
5;512
6;514
7;516
8;518
9;519
10;517
11;515
12;512
13;510
14;507
15;507
0;511
1;513
2;513
3;512
4;512
5;512
6;512
7;508
8;507
9;507
10;507
11;507
12;507
13;504
14;500
15;497
0;498
1;503
2;506
3;505
4;506
5;505
6;505
7;504
8;503
9;504
10;504
11;502
12;498
13;496
14;492
15;490
0;491
1;494
2;497
3;500
4;503
5;503
6;503
7;502
8;502
9;503
10;504
11;506
12;505
13;505
14;504
15;499
0;496
1;498
2;502
3;505
4;506
5;508
6;507
7;505
8;502
9;502
10;503
11;502
12;504
13;502
14;501
15;499
0;496
1;496
2;496
3;499
4;504
5;505
6;506
7;504
8;503
9;501
10;502
11;503
12;504
13;504
14;503
15;499
0;496
1;494
2;492
3;496
4;500
5;504
6;505
7;507
8;507
9;508
10;506
11;506
12;508
13;507
14;504
15;503
0;499
1;496
2;495
3;497
4;501
5;504
6;506
7;507
8;507
9;505
10;504
11;505
12;510
13;514
14;518
15;521
0;524
1;527
2;527
3;527
4;534
5;542
6;548
7;553
8;555
9;551
10;546
11;543
12;539
13;537
14;536
15;532
0;529
1;531
2;532
3;530
4;531
5;533
6;534
7;534
8;532
9;527
10;523
11;519
12;515
13;512
14;511
15;509
0;506
1;501
2;497
3;492
4;486
5;481
6;481
7;482
8;481
9;480
10;479
11;477
12;475
13;474
14;476
15;479
0;479
1;478
2;477
3;473
4;469
5;468
6;471
7;476
8;478
9;482
10;485
11;486
12;487
13;487
14;491
15;494
0;496
1;496
2;497
3;496
4;494
5;491
6;489
7;492
8;495
9;500
10;503
11;505
12;507
13;506
14;502
15;503
0;505
1;508
2;508
3;506
4;505
5;504
6;503
7;502
8;507
9;511
10;514
11;513
12;514
13;511
14;509
15;508
0;509
1;510
2;508
3;507
4;505
5;504
6;502
7;501
8;504
9;508
10;512
11;514
12;515
13;514
14;512
15;511
0;511
1;514
2;516
3;515
4;515
5;512
6;508
7;506
8;505
9;508
10;511
11;514
12;514
13;514
14;513
15;512
0;511
1;512
2;514
3;515
4;516
5;515
6;512
7;507
8;502
9;503
10;508
11;513
12;516
13;518
14;515
15;512
0;509
1;509
2;512
3;514
4;518
5;518
6;518
7;516
8;513
9;511
10;512
11;513
12;515
13;515
14;514
15;513
0;513
1;512
2;512
3;514
4;517
5;516
6;513
7;512
8;510
9;507
10;505
11;511
12;517
13;519
14;519
15;521
0;521
1;519
2;520
3;523
4;526
5;527
6;527
7;525
8;523
9;516
10;512
11;513
12;515
13;518
14;519
15;520
0;522
1;521
2;519
3;520
4;522
5;524
6;523
7;523
8;523
9;519
10;518
11;519
12;519
13;521
14;523
15;524
0;524
1;526
2;525
3;525
4;527
5;529
6;531
7;531
8;531
9;529
10;526
11;522
12;519
13;522
14;524
15;526
0;529
1;530
2;529
3;528
4;527
5;527
6;528
7;527
8;526
9;526
10;524
11;521
12;516
13;515
14;518
15;522
0;524
1;525
2;525
3;523
4;523
5;522
6;523
7;524
8;523
9;521
10;519
11;516
12;512
13;511
14;512
15;515
0;518
1;518
2;519
3;515
4;509
5;504
6;502
7;504
8;507
9;507
10;505
11;503
12;499
13;497
14;496
15;499
0;502
1;501
2;501
3;499
4;499
5;498
6;497
7;497
8;498
9;497
10;496
11;494
12;491
13;488
14;485
15;485
0;490
1;494
2;494
3;492
4;491
5;490
6;488
7;491
8;492
9;493
10;491
11;487
12;485
13;481
14;479
15;476
0;478
1;481
2;485
3;487
4;488
5;489
6;489
7;487
8;486
9;486
10;487
11;488
12;487
13;487
14;484
15;481
0;482
1;485
2;488
3;491
4;492
5;494
6;492
7;490
8;490
9;491
10;492
11;493
12;494
13;494
14;493
15;490
0;487
1;487
2;489
3;491
4;494
5;496
6;497
7;496
8;495
9;495
10;499
11;499
12;499
13;496
14;496
15;494
0;491
1;488
2;491
3;495
4;496
5;497
6;496
7;496
8;496
9;496
10;497
11;498
12;497
13;495
14;493
15;493
0;491
1;488
2;488
3;491
4;495
5;497
6;498
7;499
8;497
9;496
10;497
11;497
12;498
13;497
14;495
15;492
0;490
1;487
2;486
3;487
4;491
5;494
6;497
7;499
8;498
9;497
10;497
11;498
12;499
13;499
14;501
15;501
0;499
1;496
2;490
3;486
4;487
5;491
6;496
7;497
8;501
9;500
10;500
11;500
12;499
13;502
14;503
15;501
0;499
1;497
2;496
3;495
4;497
5;501
6;503
7;503
8;504
9;505
10;503
11;502
12;503
13;503
14;504
15;502
0;502
1;500
2;498
3;495
4;493
5;494
6;497
7;501
8;502
9;502
10;500
11;497
12;493
13;495
14;498
15;503
0;504
1;503
2;503
3;500
4;499
5;496
6;498
7;503
8;505
9;506
10;508
11;508
12;507
13;506
14;509
15;513
0;513
1;510
2;508
3;503
4;497
5;492
6;491
7;497
8;502
9;504
10;510
11;512
12;509
13;506
14;503
15;503
0;505
1;506
2;505
3;504
4;502
5;499
6;497
7;499
8;503
9;507
10;508
11;508
12;507
13;504
14;501
15;502
0;503
1;507
2;508
3;508
4;507
5;502
6;497
7;496
8;498
9;501
10;503
11;504
12;504
13;504
14;506
15;508
0;509
1;510
2;507
3;503
4;499
5;498
6;495
7;492
8;496
9;502
10;504
11;506
12;507
13;504
14;502
15;501
0;504
1;507
2;508
3;508
4;508
5;508
6;506
7;503
8;500
9;501
10;503
11;505
12;506
13;506
14;507
15;505
0;503
1;502
2;504
3;505
4;505
5;504
6;504
7;501
8;500
9;499
10;501
11;505
12;509
13;510
14;510
15;509
0;507
1;505
2;507
3;510
4;510
5;507
6;505
7;502
8;500
9;499
10;500
11;502
12;507
13;509
14;510
15;510
0;509
1;507
2;505
3;505
4;507
5;505
6;504
7;503
8;501
9;502
10;500
11;502
12;505
13;508
14;508
15;508
0;508
1;506
2;504
3;505
4;508
5;508
6;506
7;503
8;500
9;500
10;498
11;498
12;504
13;506
14;507
15;506
0;508
1;511
2;511
3;509
4;508
5;508
6;507
7;504
8;504
9;504
10;502
11;498
12;496
13;499
14;501
15;504
0;507
1;509
2;509
3;508
4;505
5;505
6;507
7;510
8;508
9;506
10;504
11;501
12;500
13;503
14;508
15;512
0;512
1;513
2;514
3;511
4;507
5;506
6;507
7;508
8;507
9;506
10;504
11;502
12;500
13;499
14;499
15;501
0;505
1;507
2;508
3;506
4;507
5;509
6;509
7;508
8;507
9;507
10;504
11;501
12;497
13;495
14;498
15;504
0;506
1;508
2;507
3;506
4;505
5;504
6;504
7;506
8;508
9;508
10;507
11;505
12;504
13;503
14;499
15;500
0;503
1;505
2;507
3;509
4;511
5;511
6;508
7;507
8;507
9;508
10;508
11;505
12;502
13;498
14;494
15;493
0;495
1;500
2;506
3;509
4;509
5;508
6;507
7;509
8;510
9;512
10;511
11;511
12;509
13;507
14;503
15;497
0;498
1;502
2;507
3;508
4;510
5;510
6;509
7;508
8;507
9;508
10;508
11;507
12;505
13;506
14;505
15;503
0;501
1;503
2;504
3;507
4;510
5;511
6;511
7;510
8;509
9;510
10;513
11;514
12;514
13;516
14;518
15;516
0;511
1;509
2;510
3;510
4;511
5;511
6;511
7;510
8;510
9;508
10;508
11;507
12;508
13;507
14;505
15;503
0;501
1;498
2;498
3;500
4;503
5;505
6;507
7;508
8;510
9;509
10;508
11;509
12;511
13;511
14;510
15;511
0;510
1;507
2;507
3;509
4;511
5;514
6;515
7;515
8;515
9;514
10;513
11;514
12;517
13;518
14;515
15;513
0;512
1;508
2;500
3;499
4;500
5;503
6;506
7;505
8;507
9;508
10;507
11;510
12;511
13;511
14;510
15;508
0;506
1;502
2;500
3;499
4;499
5;500
6;504
7;507
8;508
9;508
10;506
11;506
12;504
13;505
14;506
15;505
0;503
1;501
2;499
3;496
4;496
5;499
6;503
7;506
8;506
9;506
10;506
11;507
12;505
13;507
14;509
15;510
0;509
1;507
2;505
3;504
4;501
5;501
6;503
7;504
8;504
9;504
10;503
11;501
12;499
13;499
14;501
15;502
0;501
1;499
2;499
3;497
4;495
5;495
6;498
7;502
8;506
9;506
10;506
11;508
12;507
13;506
14;507
15;508
0;510
1;510
2;506
3;502
4;497
5;495
6;494
7;497
8;500
9;503
10;508
11;509
12;506
13;502
14;500
15;500
0;503
1;504
2;504
3;504
4;503
5;500
6;499
7;501
8;506
9;511
10;517
11;521
12;524
13;526
14;528
15;531
0;534
1;537
2;540
3;542
4;543
5;544
6;542
7;539
8;537
9;538
10;540
11;541
12;540
13;538
14;536
15;536
0;536
1;536
2;538
3;538
4;535
5;532
6;528
7;521
8;515
9;514
10;514
11;514
12;513
13;512
14;510
15;505
0;501
1;499
2;497
3;494
4;490
5;485
6;479
7;472
8;468
9;466
10;468
11;472
12;476
13;479
14;479
15;478
0;476
1;474
2;477
3;479
4;481
5;482
6;482
7;482
8;481
9;479
10;480
11;482
12;485
13;489
14;494
15;498
0;498
1;496
2;495
3;497
4;501
5;504
6;504
7;503
8;501
9;497
10;495
11;497
12;500
13;504
14;507
15;509
0;511
1;509
2;507
3;509
4;512
5;513
6;513
7;511
8;507
9;504
10;500
11;499
12;501
13;504
14;508
15;512
0;514
1;514
2;512
3;510
4;511
5;512
6;513
7;515
8;512
9;512
10;510
11;506
12;507
13;509
14;510
15;511
0;512
1;516
2;514
3;511
4;510
5;511
6;511
7;512
8;509
9;509
10;507
11;503
12;499
13;502
14;505
15;507
0;510
1;511
2;512
3;511
4;511
5;513
6;517
7;519
8;520
9;519
10;516
11;512
12;508
13;508
14;512
15;516
0;519
1;519
2;519
3;517
4;515
5;515
6;515
7;514
8;514
9;514
10;512
11;510
12;508
13;509
14;511
15;513
0;517
1;519
2;520
3;520
4;519
5;517
6;517
7;519
8;519
9;520
10;519
11;517
12;513
13;510
14;508
15;512
0;515
1;517
2;519
3;519
4;518
5;515
6;513
7;512
8;515
9;519
10;520
11;519
12;517
13;514
14;513
15;513
0;518
1;521
2;524
3;527
4;526
5;526
6;525
7;525
8;525
9;527
10;526
11;525
12;524
13;523
14;520
15;519
0;520
1;523
2;524
3;526
4;524
5;523
6;523
7;523
8;524
9;524
10;527
11;527
12;526
13;524
14;520
15;516
0;513
1;518
2;523
3;529
4;532
5;534
6;532
7;528
8;524
9;524
10;526
11;527
12;526
13;524
14;523
15;521
0;515
1;513
2;515
3;517
4;519
5;519
6;518
7;519
8;518
9;518
10;519
11;519
12;520
13;516
14;514
15;511
0;507
1;504
2;504
3;507
4;508
5;508
6;508
7;507
8;504
9;502
10;499
11;501
12;505
13;505
14;504
15;501
0;495
1;489
2;487
3;488
4;490
5;495
6;498
7;501
8;502
9;501
10;499
11;496
12;495
13;495
14;494
15;494
0;491
1;485
2;480
3;481
4;486
5;490
6;492
7;494
8;494
9;493
10;488
11;485
12;485
13;489
14;490
15;488
0;487
1;484
2;480
3;476
4;478
5;483
6;487
7;491
8;492
9;492
10;490
11;488
12;485
13;486
14;488
15;490
0;490
1;487
2;487
3;482
4;480
5;484
6;487
7;491
8;492
9;492
10;491
11;490
12;489
13;489
14;492
15;493
0;494
1;492
2;488
3;487
4;485
5;487
6;489
7;491
8;492
9;492
10;492
11;489
12;489
13;489
14;492
15;494
0;495
1;494
2;494
3;493
4;491
5;488
6;489
7;492
8;492
9;493
10;494
11;495
12;493
13;494
14;494
15;493
0;493
1;492
2;492
3;492
4;489
5;488
6;488
7;493
8;495
9;499
10;502
11;503
12;502
13;499
14;497
15;496
0;499
1;502
2;503
3;501
4;499
5;495
6;493
7;492
8;493
9;496
10;498
11;499
12;501
13;500
14;498
15;496
0;498
1;500
2;500
3;499
4;499
5;499
6;496
7;493
8;494
9;495
10;499
11;502
12;503
13;505
14;503
15;500
0;500
1;501
2;504
3;504
4;504
5;503
6;500
7;496
8;494
9;497
10;500
11;503
12;507
13;507
14;506
15;508
0;507
1;505
2;505
3;505
4;505
5;506
6;506
7;503
8;499
9;499
10;501
11;504
12;507
13;507
14;506
15;505
0;504
1;504
2;506
3;508
4;508
5;506
6;504
7;500
8;496
9;494
10;496
11;502
12;506
13;508
14;508
15;508
0;507
1;505
2;504
3;504
4;506
5;507
6;506
7;504
8;499
9;494
10;493
11;497
12;501
13;504
14;504
15;502
0;504
1;505
2;505
3;505
4;506
5;506
6;504
7;504
8;502
9;500
10;498
11;497
12;499
13;501
14;502
15;502
0;503
1;502
2;502
3;502
4;503
5;505
6;508
7;507
8;507
9;504
10;500
11;498
12;501
13;505
14;508
15;509
0;511
1;512
2;509
3;505
4;504
5;506
6;507
7;506
8;503
9;501
10;497
11;496
12;496
13;500
14;505
15;507
0;508
1;509
2;508
3;506
4;503
5;504
6;507
7;508
8;507
9;505
10;504
11;501
12;497
13;496
14;500
15;503
0;504
1;507
2;508
3;508
4;507
5;506
6;507
7;507
8;507
9;507
10;506
11;501
12;496
13;495
14;498
