,0
0,-0.06897365591397864
1,-0.07542526881720457
2,-0.08187688172043028
3,-0.088328494623656
4,-0.08187688172043028
5,-0.0721994623655915
6,-0.06897365591397864
7,-0.0721994623655915
8,-0.07865107526881743
9,-0.09800591397849479
10,-0.12058655913978522
11,-0.13671559139784972
12,-0.12703817204301093
13,-0.11090913978494643
14,-0.09800591397849479
15,-0.08510268817204314
16,-0.0721994623655915
17,-0.06897365591397864
18,-0.07542526881720457
19,-0.08510268817204314
20,-0.08510268817204314
21,-0.07542526881720457
22,-0.06574784946236578
23,-0.06252204301075293
24,-0.06574784946236578
25,-0.06897365591397864
26,-0.08510268817204314
27,-0.10445752688172072
28,-0.11736075268817214
29,-0.10445752688172072
30,-0.08187688172043028
31,-0.06897365591397864
32,-0.05607043010752699
33,-0.04961881720430128
34,-0.052844623655914136
35,-0.05929623655914007
36,-0.06574784946236578
37,-0.05929623655914007
38,-0.052844623655914136
39,-0.04961881720430128
40,-0.052844623655914136
41,-0.05607043010752699
42,-0.06897365591397864
43,-0.088328494623656
44,-0.11090913978494643
45,-0.11413494623655929
46,-0.10123172043010764
47,-0.08510268817204314
48,-0.0721994623655915
49,-0.06574784946236578
50,-0.06574784946236578
51,-0.0721994623655915
52,-0.08510268817204314
53,-0.09478010752688193
54,-0.088328494623656
55,-0.08187688172043028
56,-0.08187688172043028
57,-0.088328494623656
58,-0.09478010752688193
59,-0.11090913978494643
60,-0.13348978494623664
61,-0.14961881720430115
62,-0.14316720430107543
63,-0.1302639784946238
64,-0.11413494623655929
65,-0.10445752688172072
66,-0.09800591397849479
67,-0.09800591397849479
68,-0.10445752688172072
69,-0.12058655913978522
70,-0.12703817204301093
71,-0.12058655913978522
72,-0.11413494623655929
73,-0.11413494623655929
74,-0.11736075268817214
75,-0.12703817204301093
76,-0.13994139784946258
77,-0.1625220430107528
78,-0.17219946236559158
79,-0.15929623655913994
80,-0.14316720430107543
81,-0.12703817204301093
82,-0.11736075268817214
83,-0.10768333333333358
84,-0.11090913978494643
85,-0.11736075268817214
86,-0.12703817204301093
87,-0.12058655913978522
88,-0.11413494623655929
89,-0.10768333333333358
90,-0.11090913978494643
91,-0.11736075268817214
92,-0.12703817204301093
93,-0.1463930107526883
94,-0.16897365591397873
95,-0.16897365591397873
96,-0.15284462365591422
97,-0.13671559139784972
98,-0.12058655913978522
99,-0.11090913978494643
100,-0.10445752688172072
101,-0.10445752688172072
102,-0.11090913978494643
103,-0.12058655913978522
104,-0.11090913978494643
105,-0.10123172043010764
106,-0.09800591397849479
107,-0.10123172043010764
108,-0.10445752688172072
109,-0.11736075268817214
110,-0.13994139784946258
111,-0.15607043010752708
112,-0.14961881720430115
113,-0.1302639784946238
114,-0.11413494623655929
115,-0.10445752688172072
116,-0.09155430107526907
117,-0.088328494623656
118,-0.09478010752688193
119,-0.10123172043010764
120,-0.10123172043010764
121,-0.09155430107526907
122,-0.08510268817204314
123,-0.08510268817204314
124,-0.088328494623656
125,-0.09800591397849479
126,-0.11413494623655929
127,-0.13671559139784972
128,-0.14316720430107543
129,-0.13348978494623664
130,-0.11413494623655929
131,-0.10123172043010764
132,-0.09155430107526907
133,-0.08187688172043028
134,-0.08510268817204314
135,-0.09478010752688193
136,-0.10123172043010764
137,-0.09800591397849479
138,-0.088328494623656
139,-0.08510268817204314
140,-0.08187688172043028
141,-0.08187688172043028
142,-0.088328494623656
143,-0.09800591397849479
144,-0.11413494623655929
145,-0.10445752688172072
146,-0.08187688172043028
147,-0.052844623655914136
148,-0.023812365591397988
149,-0.0012317204301077744
150,0.018123118279569805
151,0.024574731182795517
152,0.024574731182795517
153,0.03102634408602123
154,0.05038118279569881
155,0.07296182795698902
156,0.08586505376344067
157,0.08909086021505352
158,0.08586505376344067
159,0.06328440860215045
160,0.027800537634408373
161,-0.0012317204301077744
162,-0.007683333333333486
163,-0.00445752688172063
164,-0.0012317204301077744
165,0.0019940860215053036
166,0.0052198924731181595
167,-0.0012317204301077744
168,-0.01413494623655942
169,-0.027038172043010844
170,-0.030263978494623922
171,-0.020586559139785132
172,-0.010909139784946342
173,-0.01413494623655942
174,-0.020586559139785132
175,-0.03994139784946249
176,-0.0721994623655915
177,-0.11413494623655929
178,-0.14316720430107543
179,-0.15284462365591422
180,-0.15607043010752708
181,-0.15929623655913994
182,-0.15929623655913994
183,-0.15929623655913994
184,-0.17219946236559158
185,-0.18832849462365608
186,-0.20445752688172059
187,-0.21090913978494652
188,-0.21736075268817223
189,-0.23026397849462388
190,-0.2528446236559141
191,-0.2786510752688174
192,-0.3044575268817207
193,-0.33026397849462374
194,-0.35607043010752704
195,-0.3592962365591399
196,-0.33994139784946253
197,-0.3205865591397852
198,-0.30768333333333353
199,-0.2947801075268819
200,-0.2851026881720431
201,-0.2851026881720431
202,-0.2883284946236562
203,-0.2851026881720431
204,-0.27219946236559167
205,-0.2528446236559141
206,-0.24316720430107552
207,-0.23994139784946245
208,-0.23994139784946245
209,-0.24316720430107552
210,-0.25607043010752717
211,-0.2625220430107529
212,-0.24316720430107552
213,-0.21413494623655938
214,-0.18832849462365608
215,-0.16574784946236587
216,-0.1463930107526883
217,-0.13994139784946258
218,-0.13348978494623664
219,-0.13348978494623664
220,-0.11736075268817214
221,-0.09478010752688193
222,-0.07865107526881743
223,-0.06897365591397864
224,-0.06574784946236578
225,-0.06897365591397864
226,-0.08187688172043028
227,-0.10123172043010764
228,-0.09800591397849479
229,-0.07865107526881743
230,-0.05929623655914007
231,-0.043167204301075346
232,-0.027038172043010844
233,-0.020586559139785132
234,-0.017360752688172276
235,-0.023812365591397988
236,-0.030263978494623922
237,-0.020586559139785132
238,-0.007683333333333486
239,-0.0012317204301077744
240,-0.00445752688172063
241,-0.007683333333333486
242,-0.023812365591397988
243,-0.03994139784946249
244,-0.05607043010752699
245,-0.052844623655914136
246,-0.03348978494623678
247,-0.010909139784946342
248,0.0019940860215053036
249,0.011671505376343871
250,0.018123118279569805
251,0.014897311827956727
252,0.0052198924731181595
253,0.0052198924731181595
254,0.011671505376343871
255,0.02134892473118266
256,0.024574731182795517
257,0.018123118279569805
258,0.011671505376343871
259,-0.00445752688172063
260,-0.023812365591397988
261,-0.03994139784946249
262,-0.030263978494623922
263,-0.010909139784946342
264,0.0052198924731181595
265,0.02134892473118266
266,0.03102634408602123
267,0.03102634408602123
268,0.02134892473118266
269,0.011671505376343871
270,0.014897311827956727
271,0.024574731182795517
272,0.027800537634408373
273,0.024574731182795517
274,0.018123118279569805
275,0.008445698924731015
276,-0.01413494623655942
277,-0.03994139784946249
278,-0.043167204301075346
279,-0.027038172043010844
280,-0.007683333333333486
281,0.008445698924731015
282,0.02134892473118266
283,0.027800537634408373
284,0.027800537634408373
285,0.02134892473118266
286,0.014897311827956727
287,0.02134892473118266
288,0.03425215053763431
289,0.04070376344086002
290,0.04070376344086002
291,0.03747795698924716
292,0.024574731182795517
293,0.0052198924731181595
294,-0.010909139784946342
295,-0.00445752688172063
296,0.014897311827956727
297,0.03102634408602123
298,0.043929569892472875
299,0.05683279569892452
300,0.06005860215053738
301,0.05683279569892452
302,0.04715537634408573
303,0.04715537634408573
304,0.05683279569892452
305,0.06973602150537617
306,0.07296182795698902
307,0.06973602150537617
308,0.06005860215053738
309,0.043929569892472875
310,0.024574731182795517
311,0.014897311827956727
312,0.03102634408602123
313,0.053606989247311665
314,0.07296182795698902
315,0.08909086021505352
316,0.10199408602150517
317,0.10199408602150517
318,0.09876827956989231
319,0.09231666666666638
320,0.09876827956989231
321,0.11167150537634396
322,0.12134892473118253
323,0.12134892473118253
324,0.11812311827956967
325,0.1084456989247311
326,0.08909086021505352
327,0.06973602150537617
328,0.06973602150537617
329,0.08586505376344067
330,0.11167150537634396
331,0.12780053763440846
332,0.1407037634408601
333,0.14392956989247296
334,0.14392956989247296
335,0.13747795698924703
336,0.13102634408602132
337,0.13747795698924703
338,0.15038118279569868
339,0.15038118279569868
340,0.14715537634408582
341,0.13747795698924703
342,0.11812311827956967
343,0.09554247311827946
344,0.07296182795698902
345,0.07941344086021496
346,0.09231666666666638
347,0.10521989247311803
348,0.11489731182795682
349,0.12134892473118253
350,0.11812311827956967
351,0.10521989247311803
352,0.08909086021505352
353,0.08263924731182781
354,0.08909086021505352
355,0.09231666666666638
356,0.08586505376344067
357,0.07618763440860188
358,0.06651021505376331
359,0.043929569892472875
360,0.018123118279569805
361,0.0019940860215053036
362,0.008445698924731015
363,0.027800537634408373
364,0.04070376344086002
365,0.04715537634408573
366,0.05038118279569881
367,0.043929569892472875
368,0.03102634408602123
369,0.018123118279569805
370,0.02134892473118266
371,0.027800537634408373
372,0.027800537634408373
373,0.024574731182795517
374,0.018123118279569805
375,-0.0012317204301077744
376,-0.027038172043010844
377,-0.052844623655914136
378,-0.05607043010752699
379,-0.043167204301075346
380,-0.027038172043010844
381,-0.017360752688172276
382,-0.010909139784946342
383,-0.010909139784946342
384,-0.017360752688172276
385,-0.023812365591397988
386,-0.030263978494623922
387,-0.027038172043010844
388,-0.023812365591397988
389,-0.023812365591397988
390,-0.030263978494623922
391,-0.03994139784946249
392,-0.05929623655914007
393,-0.08510268817204314
394,-0.10445752688172072
395,-0.10123172043010764
396,-0.08187688172043028
397,-0.06574784946236578
398,-0.052844623655914136
399,-0.043167204301075346
400,-0.043167204301075346
401,-0.052844623655914136
402,-0.06574784946236578
403,-0.06897365591397864
404,-0.06574784946236578
405,-0.05607043010752699
406,-0.05607043010752699
407,-0.06897365591397864
408,-0.08510268817204314
409,-0.10445752688172072
410,-0.13348978494623664
411,-0.1463930107526883
412,-0.13348978494623664
413,-0.11090913978494643
414,-0.09478010752688193
415,-0.08187688172043028
416,-0.07542526881720457
417,-0.08187688172043028
418,-0.09155430107526907
419,-0.10445752688172072
420,-0.10445752688172072
421,-0.09478010752688193
422,-0.09155430107526907
423,-0.09478010752688193
424,-0.10445752688172072
425,-0.11413494623655929
426,-0.13671559139784972
427,-0.15929623655913994
428,-0.15929623655913994
429,-0.13671559139784972
430,-0.11736075268817214
431,-0.10123172043010764
432,-0.088328494623656
433,-0.08510268817204314
434,-0.09155430107526907
435,-0.10123172043010764
436,-0.10123172043010764
437,-0.09155430107526907
438,-0.08187688172043028
439,-0.08187688172043028
440,-0.08187688172043028
441,-0.088328494623656
442,-0.10445752688172072
443,-0.1302639784946238
444,-0.1463930107526883
445,-0.13671559139784972
446,-0.11736075268817214
447,-0.09800591397849479
448,-0.08187688172043028
449,-0.06897365591397864
450,-0.06897365591397864
451,-0.07542526881720457
452,-0.08510268817204314
453,-0.08510268817204314
454,-0.07542526881720457
455,-0.06897365591397864
456,-0.06897365591397864
457,-0.06897365591397864
458,-0.08187688172043028
459,-0.10445752688172072
460,-0.1302639784946238
461,-0.13671559139784972
462,-0.12381236559139808
463,-0.10123172043010764
464,-0.08510268817204314
465,-0.07542526881720457
466,-0.06574784946236578
467,-0.06897365591397864
468,-0.07865107526881743
469,-0.08510268817204314
470,-0.08187688172043028
471,-0.0721994623655915
472,-0.06574784946236578
473,-0.06897365591397864
474,-0.07865107526881743
475,-0.09155430107526907
476,-0.11090913978494643
477,-0.13348978494623664
478,-0.1302639784946238
479,-0.11736075268817214
480,-0.10123172043010764
481,-0.08187688172043028
482,-0.06897365591397864
483,-0.06574784946236578
484,-0.06897365591397864
485,-0.07865107526881743
486,-0.088328494623656
487,-0.07865107526881743
488,-0.06897365591397864
489,-0.06897365591397864
490,-0.0721994623655915
491,-0.08187688172043028
492,-0.10123172043010764
493,-0.12381236559139808
494,-0.13994139784946258
495,-0.1302639784946238
496,-0.11090913978494643
497,-0.09478010752688193
498,-0.08187688172043028
499,-0.06897365591397864
500,-0.06897365591397864
501,-0.07542526881720457
502,-0.07865107526881743
503,-0.07865107526881743
504,-0.06574784946236578
505,-0.05929623655914007
506,-0.05929623655914007
507,-0.06897365591397864
508,-0.08187688172043028
509,-0.09800591397849479
510,-0.12381236559139808
511,-0.13348978494623664
512,-0.11413494623655929
513,-0.09155430107526907
514,-0.07865107526881743
515,-0.06574784946236578
516,-0.05929623655914007
517,-0.06252204301075293
518,-0.0721994623655915
519,-0.07865107526881743
520,-0.06897365591397864
521,-0.05607043010752699
522,-0.04961881720430128
523,-0.05607043010752699
524,-0.06252204301075293
525,-0.07865107526881743
526,-0.10123172043010764
527,-0.12381236559139808
528,-0.12058655913978522
529,-0.10445752688172072
530,-0.08187688172043028
531,-0.06574784946236578
532,-0.05607043010752699
533,-0.04961881720430128
534,-0.052844623655914136
535,-0.05929623655914007
536,-0.05929623655914007
537,-0.05607043010752699
538,-0.046393010752688424
539,-0.046393010752688424
540,-0.052844623655914136
541,-0.05929623655914007
542,-0.07865107526881743
543,-0.10445752688172072
544,-0.12381236559139808
545,-0.11090913978494643
546,-0.088328494623656
547,-0.0721994623655915
548,-0.05929623655914007
549,-0.04961881720430128
550,-0.04961881720430128
551,-0.05607043010752699
552,-0.06574784946236578
553,-0.06574784946236578
554,-0.05607043010752699
555,-0.043167204301075346
556,-0.043167204301075346
557,-0.046393010752688424
558,-0.05607043010752699
559,-0.07542526881720457
560,-0.09478010752688193
561,-0.10123172043010764
562,-0.08187688172043028
563,-0.05607043010752699
564,-0.03994139784946249
565,-0.027038172043010844
566,-0.017360752688172276
567,-0.017360752688172276
568,-0.023812365591397988
569,-0.03348978494623678
570,-0.027038172043010844
571,-0.017360752688172276
572,-0.01413494623655942
573,-0.017360752688172276
574,-0.023812365591397988
575,-0.036715591397849634
576,-0.05929623655914007
577,-0.08187688172043028
578,-0.07865107526881743
579,-0.05929623655914007
580,-0.03994139784946249
581,-0.027038172043010844
582,-0.01413494623655942
583,-0.010909139784946342
584,-0.017360752688172276
585,-0.030263978494623922
586,-0.036715591397849634
587,-0.030263978494623922
588,-0.017360752688172276
589,-0.017360752688172276
590,-0.023812365591397988
591,-0.03348978494623678
592,-0.05929623655914007
593,-0.08510268817204314
594,-0.10123172043010764
595,-0.088328494623656
596,-0.06897365591397864
597,-0.052844623655914136
598,-0.043167204301075346
599,-0.036715591397849634
600,-0.03994139784946249
601,-0.05607043010752699
602,-0.06574784946236578
603,-0.06574784946236578
604,-0.05607043010752699
605,-0.05607043010752699
606,-0.05607043010752699
607,-0.06574784946236578
608,-0.08187688172043028
609,-0.10445752688172072
610,-0.1302639784946238
611,-0.13671559139784972
612,-0.12058655913978522
613,-0.10123172043010764
614,-0.08510268817204314
615,-0.0721994623655915
616,-0.06574784946236578
617,-0.06897365591397864
618,-0.07865107526881743
619,-0.08510268817204314
620,-0.08187688172043028
621,-0.06897365591397864
622,-0.06574784946236578
623,-0.0721994623655915
624,-0.07865107526881743
625,-0.09800591397849479
626,-0.12058655913978522
627,-0.13994139784946258
628,-0.1302639784946238
629,-0.10768333333333358
630,-0.09155430107526907
631,-0.07865107526881743
632,-0.06897365591397864
633,-0.06897365591397864
634,-0.07542526881720457
635,-0.08187688172043028
636,-0.08187688172043028
637,-0.07542526881720457
638,-0.06252204301075293
639,-0.06252204301075293
640,-0.06574784946236578
641,-0.07542526881720457
642,-0.09155430107526907
643,-0.11090913978494643
644,-0.12703817204301093
645,-0.11736075268817214
646,-0.09478010752688193
647,-0.07865107526881743
648,-0.06252204301075293
649,-0.052844623655914136
650,-0.052844623655914136
651,-0.06252204301075293
652,-0.0721994623655915
653,-0.06897365591397864
654,-0.05607043010752699
655,-0.046393010752688424
656,-0.04961881720430128
657,-0.05607043010752699
658,-0.0721994623655915
659,-0.09155430107526907
660,-0.11736075268817214
661,-0.12058655913978522
662,-0.10123172043010764
663,-0.07865107526881743
664,-0.06252204301075293
665,-0.04961881720430128
666,-0.03994139784946249
667,-0.043167204301075346
668,-0.052844623655914136
669,-0.05607043010752699
670,-0.046393010752688424
671,-0.030263978494623922
672,-0.030263978494623922
673,-0.036715591397849634
674,-0.043167204301075346
675,-0.06252204301075293
676,-0.08510268817204314
677,-0.10445752688172072
678,-0.10123172043010764
679,-0.07542526881720457
680,-0.04961881720430128
681,-0.027038172043010844
682,-0.01413494623655942
683,-0.007683333333333486
684,-0.00445752688172063
685,-0.0012317204301077744
686,0.0019940860215053036
687,0.024574731182795517
688,0.04715537634408573
689,0.06328440860215045
690,0.07296182795698902
691,0.07296182795698902
692,0.06328440860215045
693,0.05038118279569881
694,0.043929569892472875
695,0.06328440860215045
696,0.10199408602150517
697,0.1245747311827956
698,0.13425215053763417
699,0.13425215053763417
700,0.11812311827956967
701,0.08586505376344067
702,0.06005860215053738
703,0.05038118279569881
704,0.04715537634408573
705,0.043929569892472875
706,0.03102634408602123
707,0.014897311827956727
708,-0.00445752688172063
709,-0.03994139784946249
710,-0.0721994623655915
711,-0.07542526881720457
712,-0.05929623655914007
713,-0.043167204301075346
714,-0.036715591397849634
715,-0.03994139784946249
716,-0.05607043010752699
717,-0.08187688172043028
718,-0.11736075268817214
719,-0.14961881720430115
720,-0.15929623655913994
721,-0.15929623655913994
722,-0.1625220430107528
723,-0.17219946236559158
724,-0.18510268817204323
725,-0.20768333333333344
726,-0.23348978494623673
727,-0.2625220430107529
728,-0.26574784946236574
729,-0.25929623655914
730,-0.25929623655914
731,-0.25607043010752717
732,-0.2528446236559141
733,-0.25929623655914
734,-0.2689736559139786
735,-0.2851026881720431
736,-0.2883284946236562
737,-0.27219946236559167
738,-0.25607043010752717
739,-0.24639301075268838
740,-0.24316720430107552
741,-0.24639301075268838
742,-0.25607043010752717
743,-0.27219946236559167
744,-0.27219946236559167
745,-0.24639301075268838
746,-0.20768333333333344
747,-0.1786510752688173
748,-0.15284462365591422
749,-0.13671559139784972
750,-0.1302639784946238
751,-0.12703817204301093
752,-0.12703817204301093
753,-0.11736075268817214
754,-0.09478010752688193
755,-0.0721994623655915
756,-0.06574784946236578
757,-0.06252204301075293
758,-0.06897365591397864
759,-0.07865107526881743
760,-0.09155430107526907
761,-0.08510268817204314
762,-0.05929623655914007
763,-0.027038172043010844
764,-0.0012317204301077744
765,0.014897311827956727
766,0.024574731182795517
767,0.024574731182795517
768,0.018123118279569805
769,0.014897311827956727
770,0.024574731182795517
771,0.03425215053763431
772,0.04070376344086002
773,0.04070376344086002
774,0.03747795698924716
775,0.024574731182795517
776,0.0019940860215053036
777,-0.01413494623655942
778,-0.00445752688172063
779,0.018123118279569805
780,0.04070376344086002
781,0.06005860215053738
782,0.07296182795698902
783,0.07296182795698902
784,0.06328440860215045
785,0.05038118279569881
786,0.05038118279569881
787,0.05683279569892452
788,0.06651021505376331
789,0.06973602150537617
790,0.06328440860215045
791,0.05038118279569881
792,0.03425215053763431
793,0.008445698924731015
794,-0.0012317204301077744
795,0.014897311827956727
796,0.03747795698924716
797,0.05683279569892452
798,0.06973602150537617
799,0.07941344086021496
800,0.07941344086021496
801,0.07296182795698902
802,0.06328440860215045
803,0.06651021505376331
804,0.07618763440860188
805,0.07941344086021496
806,0.07296182795698902
807,0.06328440860215045
808,0.05038118279569881
809,0.027800537634408373
810,0.0019940860215053036
811,0.0019940860215053036
812,0.02134892473118266
813,0.043929569892472875
814,0.06005860215053738
815,0.06973602150537617
816,0.07618763440860188
817,0.07296182795698902
818,0.06005860215053738
819,0.053606989247311665
820,0.05683279569892452
821,0.06651021505376331
822,0.06651021505376331
823,0.06005860215053738
824,0.05683279569892452
825,0.043929569892472875
826,0.02134892473118266
827,0.0052198924731181595
828,0.011671505376343871
829,0.04070376344086002
830,0.06328440860215045
831,0.08263924731182781
832,0.09554247311827946
833,0.09876827956989231
834,0.09231666666666638
835,0.08263924731182781
836,0.08586505376344067
837,0.09231666666666638
838,0.10521989247311803
839,0.10521989247311803
840,0.10199408602150517
841,0.09231666666666638
842,0.07296182795698902
843,0.043929569892472875
844,0.03747795698924716
845,0.05683279569892452
846,0.07941344086021496
847,0.09876827956989231
848,0.11489731182795682
849,0.13102634408602132
850,0.12780053763440846
851,0.1245747311827956
852,0.11489731182795682
853,0.1245747311827956
854,0.1407037634408601
855,0.15038118279569868
856,0.14715537634408582
857,0.14392956989247296
858,0.13102634408602132
859,0.11489731182795682
860,0.09554247311827946
861,0.09554247311827946
862,0.11812311827956967
863,0.1407037634408601
864,0.16328440860215032
865,0.17618763440860197
866,0.18263924731182768
867,0.18263924731182768
868,0.17618763440860197
869,0.16973602150537626
870,0.17941344086021482
871,0.1890908602150536
872,0.19231666666666647
873,0.1890908602150536
874,0.17941344086021482
875,0.16005860215053747
876,0.13425215053763417
877,0.11489731182795682
878,0.12134892473118253
879,0.14392956989247296
880,0.16005860215053747
881,0.1729618279569891
882,0.17941344086021482
883,0.17941344086021482
884,0.16973602150537626
885,0.1568327956989246
886,0.15360698924731175
887,0.16328440860215032
888,0.16973602150537626
889,0.16328440860215032
890,0.15038118279569868
891,0.13102634408602132
892,0.10521989247311803
893,0.07941344086021496
894,0.07296182795698902
895,0.07941344086021496
896,0.09554247311827946
897,0.1084456989247311
898,0.12134892473118253
899,0.12780053763440846
900,0.11489731182795682
901,0.10199408602150517
902,0.08586505376344067
903,0.08909086021505352
904,0.09231666666666638
905,0.08909086021505352
906,0.07618763440860188
907,0.06973602150537617
908,0.04715537634408573
909,0.02134892473118266
910,-0.00445752688172063
911,-0.00445752688172063
912,0.011671505376343871
913,0.027800537634408373
914,0.043929569892472875
915,0.05038118279569881
916,0.053606989247311665
917,0.043929569892472875
918,0.027800537634408373
919,0.02134892473118266
920,0.024574731182795517
921,0.03425215053763431
922,0.03425215053763431
923,0.027800537634408373
924,0.014897311827956727
925,-0.007683333333333486
926,-0.036715591397849634
927,-0.05607043010752699
928,-0.04961881720430128
929,-0.027038172043010844
930,-0.017360752688172276
931,-0.007683333333333486
932,0.0019940860215053036
933,-0.0012317204301077744
934,-0.010909139784946342
935,-0.023812365591397988
936,-0.027038172043010844
937,-0.023812365591397988
938,-0.017360752688172276
939,-0.023812365591397988
940,-0.030263978494623922
941,-0.043167204301075346
942,-0.06574784946236578
943,-0.09155430107526907
944,-0.10445752688172072
945,-0.08187688172043028
946,-0.05929623655914007
947,-0.046393010752688424
948,-0.03348978494623678
949,-0.030263978494623922
950,-0.03348978494623678
951,-0.04961881720430128
952,-0.05607043010752699
953,-0.05607043010752699
954,-0.046393010752688424
955,-0.043167204301075346
956,-0.04961881720430128
957,-0.05929623655914007
958,-0.07542526881720457
959,-0.10123172043010764
960,-0.12381236559139808
961,-0.12058655913978522
962,-0.10445752688172072
963,-0.08510268817204314
964,-0.06897365591397864
965,-0.05607043010752699
966,-0.05607043010752699
967,-0.06252204301075293
968,-0.07865107526881743
969,-0.08187688172043028
970,-0.07542526881720457
971,-0.06252204301075293
972,-0.05929623655914007
973,-0.06574784946236578
974,-0.07865107526881743
975,-0.09800591397849479
976,-0.12058655913978522
977,-0.13348978494623664
978,-0.12381236559139808
979,-0.10123172043010764
980,-0.08187688172043028
981,-0.0721994623655915
982,-0.05929623655914007
983,-0.05929623655914007
984,-0.06897365591397864
985,-0.07865107526881743
986,-0.07542526881720457
987,-0.06574784946236578
988,-0.05607043010752699
989,-0.05929623655914007
990,-0.06574784946236578
991,-0.08187688172043028
992,-0.10445752688172072
993,-0.1302639784946238
994,-0.13348978494623664
995,-0.11413494623655929
996,-0.09155430107526907
997,-0.07865107526881743
998,-0.06574784946236578
999,-0.05929623655914007
1000,-0.06252204301075293
1001,-0.07542526881720457
1002,-0.08187688172043028
1003,-0.07542526881720457
1004,-0.06252204301075293
1005,-0.05929623655914007
1006,-0.06252204301075293
1007,-0.0721994623655915
1008,-0.09155430107526907
1009,-0.11090913978494643
1010,-0.1302639784946238
1011,-0.12703817204301093
1012,-0.10445752688172072
1013,-0.08510268817204314
1014,-0.06897365591397864
1015,-0.05929623655914007
1016,-0.05607043010752699
1017,-0.05929623655914007
1018,-0.0721994623655915
1019,-0.07865107526881743
1020,-0.06897365591397864
1021,-0.05607043010752699
1022,-0.05607043010752699
1023,-0.06252204301075293
1024,-0.07542526881720457
1025,-0.09800591397849479
1026,-0.12058655913978522
1027,-0.1302639784946238
1028,-0.11736075268817214
1029,-0.09478010752688193
1030,-0.07865107526881743
1031,-0.06574784946236578
1032,-0.05607043010752699
1033,-0.05929623655914007
1034,-0.06897365591397864
1035,-0.07865107526881743
1036,-0.0721994623655915
1037,-0.05929623655914007
1038,-0.05607043010752699
1039,-0.05607043010752699
1040,-0.05929623655914007
1041,-0.0721994623655915
1042,-0.09155430107526907
1043,-0.11413494623655929
1044,-0.12058655913978522
1045,-0.10445752688172072
1046,-0.07865107526881743
1047,-0.06574784946236578
1048,-0.04961881720430128
1049,-0.043167204301075346
1050,-0.04961881720430128
1051,-0.05607043010752699
1052,-0.06574784946236578
1053,-0.05929623655914007
1054,-0.04961881720430128
1055,-0.046393010752688424
1056,-0.052844623655914136
1057,-0.05929623655914007
1058,-0.07865107526881743
1059,-0.10123172043010764
1060,-0.12058655913978522
1061,-0.11413494623655929
1062,-0.09155430107526907
1063,-0.0721994623655915
1064,-0.05607043010752699
1065,-0.043167204301075346
1066,-0.03994139784946249
1067,-0.046393010752688424
1068,-0.05929623655914007
1069,-0.05929623655914007
1070,-0.04961881720430128
1071,-0.03994139784946249
1072,-0.036715591397849634
1073,-0.043167204301075346
1074,-0.052844623655914136
1075,-0.0721994623655915
1076,-0.09478010752688193
1077,-0.10768333333333358
1078,-0.09478010752688193
1079,-0.07542526881720457
1080,-0.052844623655914136
1081,-0.03348978494623678
1082,-0.023812365591397988
1083,-0.030263978494623922
1084,-0.043167204301075346
1085,-0.052844623655914136
1086,-0.04961881720430128
1087,-0.036715591397849634
1088,-0.027038172043010844
1089,-0.027038172043010844
1090,-0.030263978494623922
1091,-0.043167204301075346
1092,-0.06574784946236578
1093,-0.09155430107526907
1094,-0.09478010752688193
1095,-0.07865107526881743
1096,-0.05607043010752699
1097,-0.036715591397849634
1098,-0.023812365591397988
1099,-0.017360752688172276
1100,-0.020586559139785132
1101,-0.030263978494623922
1102,-0.036715591397849634
1103,-0.03348978494623678
1104,-0.023812365591397988
1105,-0.020586559139785132
1106,-0.023812365591397988
1107,-0.03348978494623678
1108,-0.05607043010752699
1109,-0.07865107526881743
1110,-0.09478010752688193
1111,-0.08510268817204314
1112,-0.06252204301075293
1113,-0.03994139784946249
1114,-0.017360752688172276
1115,-0.00445752688172063
1116,0.0019940860215053036
1117,-0.00445752688172063
1118,-0.01413494623655942
1119,-0.01413494623655942
1120,-0.00445752688172063
1121,0.011671505376343871
1122,0.011671505376343871
1123,0.011671505376343871
1124,-0.0012317204301077744
1125,-0.020586559139785132
1126,-0.043167204301075346
1127,-0.052844623655914136
1128,-0.036715591397849634
1129,-0.017360752688172276
1130,0.0019940860215053036
1131,0.02134892473118266
1132,0.027800537634408373
1133,0.027800537634408373
1134,0.018123118279569805
1135,0.008445698924731015
1136,0.011671505376343871
1137,0.02134892473118266
1138,0.027800537634408373
1139,0.027800537634408373
1140,0.018123118279569805
1141,0.0019940860215053036
1142,-0.017360752688172276
1143,-0.046393010752688424
1144,-0.052844623655914136
1145,-0.036715591397849634
1146,-0.017360752688172276
1147,-0.0012317204301077744
1148,0.008445698924731015
1149,0.011671505376343871
1150,0.008445698924731015
1151,-0.00445752688172063
1152,-0.020586559139785132
1153,-0.017360752688172276
1154,-0.00445752688172063
1155,-0.00445752688172063
1156,-0.017360752688172276
1157,-0.03348978494623678
1158,-0.052844623655914136
1159,-0.07865107526881743
1160,-0.10123172043010764
1161,-0.10445752688172072
1162,-0.088328494623656
1163,-0.06897365591397864
1164,-0.05607043010752699
1165,-0.046393010752688424
1166,-0.03994139784946249
1167,-0.046393010752688424
1168,-0.05929623655914007
1169,-0.05929623655914007
1170,-0.04961881720430128
1171,-0.036715591397849634
1172,-0.03348978494623678
1173,-0.03994139784946249
1174,-0.04961881720430128
1175,-0.06897365591397864
1176,-0.09478010752688193
1177,-0.10445752688172072
1178,-0.09155430107526907
1179,-0.06897365591397864
1180,-0.04961881720430128
1181,-0.03348978494623678
1182,-0.027038172043010844
1183,-0.030263978494623922
1184,-0.036715591397849634
1185,-0.043167204301075346
1186,-0.043167204301075346
1187,-0.03348978494623678
1188,-0.030263978494623922
1189,-0.03348978494623678
1190,-0.03994139784946249
1191,-0.05607043010752699
1192,-0.07865107526881743
1193,-0.10123172043010764
1194,-0.10445752688172072
1195,-0.08510268817204314
1196,-0.06574784946236578
1197,-0.046393010752688424
1198,-0.030263978494623922
1199,-0.023812365591397988
1200,-0.027038172043010844
1201,-0.036715591397849634
1202,-0.03994139784946249
1203,-0.03348978494623678
1204,-0.023812365591397988
1205,-0.023812365591397988
1206,-0.020586559139785132
1207,-0.030263978494623922
1208,-0.04961881720430128
1209,-0.0721994623655915
1210,-0.09155430107526907
1211,-0.08187688172043028
1212,-0.06252204301075293
1213,-0.043167204301075346
1214,-0.027038172043010844
1215,-0.017360752688172276
1216,-0.017360752688172276
1217,-0.020586559139785132
1218,-0.027038172043010844
1219,-0.027038172043010844
1220,-0.020586559139785132
1221,-0.007683333333333486
1222,-0.00445752688172063
1223,-0.01413494623655942
1224,-0.023812365591397988
1225,-0.04961881720430128
1226,-0.07542526881720457
1227,-0.08187688172043028
1228,-0.06574784946236578
1229,-0.043167204301075346
1230,-0.027038172043010844
1231,-0.01413494623655942
1232,-0.00445752688172063
1233,-0.00445752688172063
1234,-0.010909139784946342
1235,-0.017360752688172276
1236,-0.00445752688172063
1237,0.014897311827956727
1238,0.027800537634408373
1239,0.03425215053763431
1240,0.03747795698924716
1241,0.03425215053763431
1242,0.024574731182795517
1243,0.014897311827956727
1244,0.027800537634408373
1245,0.06005860215053738
1246,0.08909086021505352
1247,0.11489731182795682
1248,0.13425215053763417
1249,0.1568327956989246
1250,0.16005860215053747
1251,0.15360698924731175
1252,0.15038118279569868
1253,0.15038118279569868
1254,0.15038118279569868
1255,0.13747795698924703
1256,0.11812311827956967
1257,0.08909086021505352
1258,0.05038118279569881
1259,0.014897311827956727
1260,-0.01413494623655942
1261,-0.01413494623655942
1262,-0.0012317204301077744
1263,0.011671505376343871
1264,0.018123118279569805
1265,0.027800537634408373
1266,0.03425215053763431
1267,0.027800537634408373
1268,0.011671505376343871
1269,-0.0012317204301077744
1270,-0.01413494623655942
1271,-0.027038172043010844
1272,-0.04961881720430128
1273,-0.08187688172043028
1274,-0.11736075268817214
1275,-0.14961881720430115
1276,-0.18187688172043037
1277,-0.1947801075268818
1278,-0.18510268817204323
1279,-0.17219946236559158
1280,-0.1625220430107528
1281,-0.1625220430107528
1282,-0.16897365591397873
1283,-0.19155430107526894
1284,-0.2205865591397851
1285,-0.24316720430107552
1286,-0.2528446236559141
1287,-0.24639301075268838
1288,-0.23994139784946245
1289,-0.24316720430107552
1290,-0.24961881720430124
1291,-0.25929623655914
1292,-0.2754252688172045
1293,-0.29155430107526903
1294,-0.2851026881720431
1295,-0.2625220430107529
1296,-0.23348978494623673
1297,-0.20768333333333344
1298,-0.18510268817204323
1299,-0.17219946236559158
1300,-0.16574784946236587
1301,-0.16897365591397873
1302,-0.16897365591397873
1303,-0.14961881720430115
1304,-0.12703817204301093
1305,-0.11090913978494643
1306,-0.10445752688172072
1307,-0.10445752688172072
1308,-0.11413494623655929
1309,-0.12703817204301093
1310,-0.1302639784946238
1311,-0.11090913978494643
1312,-0.07865107526881743
1313,-0.04961881720430128
1314,-0.027038172043010844
1315,-0.007683333333333486
1316,0.0052198924731181595
1317,0.011671505376343871
1318,0.0052198924731181595
1319,0.008445698924731015
1320,0.02134892473118266
1321,0.03425215053763431
1322,0.03747795698924716
1323,0.03747795698924716
1324,0.03425215053763431
1325,0.018123118279569805
1326,-0.0012317204301077744
1327,-0.010909139784946342
1328,0.0019940860215053036
1329,0.027800537634408373
1330,0.04715537634408573
1331,0.06328440860215045
1332,0.06973602150537617
1333,0.06973602150537617
1334,0.06328440860215045
1335,0.06005860215053738
1336,0.06651021505376331
1337,0.07941344086021496
1338,0.08586505376344067
1339,0.07941344086021496
1340,0.07296182795698902
1341,0.06328440860215045
1342,0.043929569892472875
1343,0.02134892473118266
1344,0.02134892473118266
1345,0.04070376344086002
1346,0.06328440860215045
1347,0.07941344086021496
1348,0.09554247311827946
1349,0.10199408602150517
1350,0.10199408602150517
1351,0.08909086021505352
1352,0.08586505376344067
1353,0.09231666666666638
1354,0.10199408602150517
1355,0.1084456989247311
1356,0.10199408602150517
1357,0.09554247311827946
1358,0.07941344086021496
1359,0.053606989247311665
1360,0.03747795698924716
1361,0.04715537634408573
1362,0.06651021505376331
1363,0.08263924731182781
1364,0.09876827956989231
1365,0.11167150537634396
1366,0.11489731182795682
1367,0.10521989247311803
1368,0.09231666666666638
1369,0.09231666666666638
1370,0.09876827956989231
1371,0.10521989247311803
1372,0.1084456989247311
1373,0.10199408602150517
1374,0.09554247311827946
1375,0.07618763440860188
1376,0.053606989247311665
1377,0.04070376344086002
1378,0.06005860215053738
1379,0.08586505376344067
1380,0.10521989247311803
1381,0.12134892473118253
1382,0.13102634408602132
1383,0.12780053763440846
1384,0.11812311827956967
1385,0.1084456989247311
1386,0.11812311827956967
1387,0.1245747311827956
1388,0.12780053763440846
1389,0.1245747311827956
1390,0.1245747311827956
1391,0.11167150537634396
1392,0.08909086021505352
1393,0.06973602150537617
1394,0.06973602150537617
1395,0.08586505376344067
1396,0.1084456989247311
1397,0.12780053763440846
1398,0.1407037634408601
1399,0.14715537634408582
1400,0.14715537634408582
1401,0.13747795698924703
1402,0.13102634408602132
1403,0.1407037634408601
1404,0.15360698924731175
1405,0.16005860215053747
1406,0.16005860215053747
1407,0.1568327956989246
1408,0.14715537634408582
1409,0.12780053763440846
1410,0.11812311827956967
1411,0.1245747311827956
1412,0.15038118279569868
1413,0.1729618279569891
1414,0.1890908602150536
1415,0.20521989247311812
1416,0.20844569892473097
1417,0.20199408602150526
1418,0.19876827956989218
1419,0.20199408602150526
1420,0.21167150537634383
1421,0.21812311827956976
1422,0.21812311827956976
1423,0.2148973118279569
1424,0.20521989247311812
1425,0.18586505376344076
1426,0.16328440860215032
1427,0.1568327956989246
1428,0.16973602150537626
1429,0.18586505376344076
1430,0.20199408602150526
1431,0.20844569892473097
1432,0.21812311827956976
1433,0.2148973118279569
1434,0.20844569892473097
1435,0.19554247311827933
1436,0.19554247311827933
1437,0.20844569892473097
1438,0.21167150537634383
1439,0.20521989247311812
1440,0.19231666666666647
1441,0.17618763440860197
1442,0.1568327956989246
1443,0.12780053763440846
1444,0.11812311827956967
1445,0.12780053763440846
1446,0.14715537634408582
1447,0.16328440860215032
1448,0.1729618279569891
1449,0.16973602150537626
1450,0.16005860215053747
1451,0.14715537634408582
1452,0.13747795698924703
1453,0.13747795698924703
1454,0.1407037634408601
1455,0.13425215053763417
1456,0.1245747311827956
1457,0.11489731182795682
1458,0.09231666666666638
1459,0.06328440860215045
1460,0.04070376344086002
1461,0.04715537634408573
1462,0.06328440860215045
1463,0.07618763440860188
1464,0.08909086021505352
1465,0.09554247311827946
1466,0.09231666666666638
1467,0.08263924731182781
1468,0.06651021505376331
1469,0.06651021505376331
1470,0.06973602150537617
1471,0.07618763440860188
1472,0.07296182795698902
1473,0.06651021505376331
1474,0.053606989247311665
1475,0.03425215053763431
1476,0.0052198924731181595
1477,-0.007683333333333486
1478,0.0019940860215053036
1479,0.02134892473118266
1480,0.03102634408602123
1481,0.03747795698924716
1482,0.043929569892472875
1483,0.03747795698924716
1484,0.024574731182795517
1485,0.011671505376343871
1486,0.011671505376343871
1487,0.018123118279569805
1488,0.018123118279569805
1489,0.014897311827956727
1490,0.0052198924731181595
1491,-0.007683333333333486
1492,-0.030263978494623922
1493,-0.05929623655914007
1494,-0.05607043010752699
1495,-0.03994139784946249
1496,-0.023812365591397988
1497,-0.01413494623655942
1498,-0.007683333333333486
1499,-0.007683333333333486
1500,-0.017360752688172276
1501,-0.027038172043010844
1502,-0.030263978494623922
1503,-0.023812365591397988
1504,-0.023812365591397988
1505,-0.027038172043010844
1506,-0.030263978494623922
1507,-0.03994139784946249
1508,-0.05929623655914007
1509,-0.08187688172043028
1510,-0.10123172043010764
1511,-0.09478010752688193
1512,-0.0721994623655915
1513,-0.05929623655914007
1514,-0.046393010752688424
1515,-0.036715591397849634
1516,-0.03994139784946249
1517,-0.046393010752688424
1518,-0.05607043010752699
1519,-0.05607043010752699
1520,-0.043167204301075346
1521,-0.036715591397849634
1522,-0.03994139784946249
1523,-0.046393010752688424
1524,-0.05929623655914007
1525,-0.07865107526881743
1526,-0.10445752688172072
1527,-0.11090913978494643
1528,-0.09800591397849479
1529,-0.07865107526881743
1530,-0.06897365591397864
1531,-0.05607043010752699
1532,-0.046393010752688424
1533,-0.04961881720430128
1534,-0.05607043010752699
1535,-0.06252204301075293
1536,-0.05607043010752699
1537,-0.04961881720430128
1538,-0.043167204301075346
1539,-0.043167204301075346
1540,-0.04961881720430128
1541,-0.06252204301075293
1542,-0.08187688172043028
1543,-0.10123172043010764
1544,-0.09478010752688193
1545,-0.07865107526881743
1546,-0.06252204301075293
1547,-0.04961881720430128
1548,-0.03994139784946249
1549,-0.03348978494623678
1550,-0.036715591397849634
1551,-0.046393010752688424
1552,-0.04961881720430128
1553,-0.043167204301075346
1554,-0.03348978494623678
1555,-0.036715591397849634
1556,-0.043167204301075346
1557,-0.05607043010752699
1558,-0.06897365591397864
1559,-0.09478010752688193
1560,-0.10445752688172072
1561,-0.09155430107526907
1562,-0.0721994623655915
1563,-0.05607043010752699
1564,-0.043167204301075346
1565,-0.03348978494623678
1566,-0.030263978494623922
1567,-0.03994139784946249
1568,-0.052844623655914136
1569,-0.052844623655914136
1570,-0.03994139784946249
1571,-0.036715591397849634
1572,-0.036715591397849634
1573,-0.03994139784946249
1574,-0.05607043010752699
1575,-0.07542526881720457
1576,-0.10123172043010764
1577,-0.10445752688172072
1578,-0.09155430107526907
1579,-0.06897365591397864
1580,-0.05607043010752699
1581,-0.046393010752688424
1582,-0.043167204301075346
1583,-0.046393010752688424
1584,-0.052844623655914136
1585,-0.05607043010752699
1586,-0.04961881720430128
1587,-0.036715591397849634
1588,-0.027038172043010844
1589,-0.036715591397849634
1590,-0.043167204301075346
1591,-0.05607043010752699
1592,-0.07542526881720457
1593,-0.09478010752688193
1594,-0.09478010752688193
1595,-0.07542526881720457
1596,-0.05607043010752699
1597,-0.046393010752688424
1598,-0.030263978494623922
1599,-0.023812365591397988
1600,-0.027038172043010844
1601,-0.036715591397849634
1602,-0.03994139784946249
1603,-0.03348978494623678
1604,-0.023812365591397988
1605,-0.017360752688172276
1606,-0.023812365591397988
1607,-0.03348978494623678
1608,-0.04961881720430128
1609,-0.07542526881720457
1610,-0.09155430107526907
1611,-0.08510268817204314
1612,-0.06574784946236578
1613,-0.046393010752688424
1614,-0.03348978494623678
1615,-0.023812365591397988
1616,-0.023812365591397988
1617,-0.030263978494623922
1618,-0.043167204301075346
1619,-0.036715591397849634
1620,-0.027038172043010844
1621,-0.017360752688172276
1622,-0.020586559139785132
1623,-0.027038172043010844
1624,-0.036715591397849634
1625,-0.05607043010752699
1626,-0.08187688172043028
1627,-0.09155430107526907
1628,-0.07542526881720457
1629,-0.05607043010752699
1630,-0.043167204301075346
1631,-0.027038172043010844
1632,-0.017360752688172276
1633,-0.020586559139785132
1634,-0.030263978494623922
1635,-0.036715591397849634
1636,-0.030263978494623922
1637,-0.020586559139785132
1638,-0.01413494623655942
1639,-0.01413494623655942
1640,-0.020586559139785132
1641,-0.03348978494623678
1642,-0.052844623655914136
1643,-0.07865107526881743
1644,-0.07542526881720457
1645,-0.05607043010752699
1646,-0.036715591397849634
1647,-0.020586559139785132
1648,-0.007683333333333486
1649,-0.00445752688172063
1650,-0.010909139784946342
1651,-0.020586559139785132
1652,-0.020586559139785132
1653,-0.01413494623655942
1654,-0.0012317204301077744
1655,0.0019940860215053036
1656,-0.0012317204301077744
1657,-0.0012317204301077744
1658,-0.020586559139785132
1659,-0.052844623655914136
1660,-0.07542526881720457
1661,-0.06574784946236578
1662,-0.043167204301075346
1663,-0.023812365591397988
1664,-0.01413494623655942
1665,-0.00445752688172063
1666,-0.00445752688172063
1667,-0.01413494623655942
1668,-0.020586559139785132
1669,-0.020586559139785132
1670,-0.007683333333333486
1671,0.0019940860215053036
1672,0.0019940860215053036
1673,-0.0012317204301077744
1674,-0.010909139784946342
1675,-0.030263978494623922
1676,-0.052844623655914136
1677,-0.05607043010752699
1678,-0.036715591397849634
1679,-0.01413494623655942
1680,0.0052198924731181595
1681,0.02134892473118266
1682,0.027800537634408373
1683,0.024574731182795517
1684,0.018123118279569805
1685,0.011671505376343871
1686,0.014897311827956727
1687,0.027800537634408373
1688,0.03425215053763431
1689,0.03425215053763431
1690,0.027800537634408373
1691,0.011671505376343871
1692,-0.01413494623655942
1693,-0.03994139784946249
1694,-0.03994139784946249
1695,-0.023812365591397988
1696,-0.0012317204301077744
1697,0.014897311827956727
1698,0.024574731182795517
1699,0.024574731182795517
1700,0.018123118279569805
1701,0.0019940860215053036
1702,-0.0012317204301077744
1703,0.0019940860215053036
1704,0.008445698924731015
1705,0.0019940860215053036
1706,-0.007683333333333486
1707,-0.017360752688172276
1708,-0.036715591397849634
1709,-0.06252204301075293
1710,-0.08187688172043028
1711,-0.07542526881720457
1712,-0.05929623655914007
1713,-0.04961881720430128
1714,-0.036715591397849634
1715,-0.023812365591397988
1716,-0.027038172043010844
1717,-0.036715591397849634
1718,-0.046393010752688424
1719,-0.04961881720430128
1720,-0.03994139784946249
1721,-0.03348978494623678
1722,-0.036715591397849634
1723,-0.046393010752688424
1724,-0.05607043010752699
1725,-0.07865107526881743
1726,-0.10445752688172072
1727,-0.11090913978494643
1728,-0.09478010752688193
1729,-0.0721994623655915
1730,-0.052844623655914136
1731,-0.036715591397849634
1732,-0.030263978494623922
1733,-0.03348978494623678
1734,-0.03994139784946249
1735,-0.04961881720430128
1736,-0.04961881720430128
1737,-0.036715591397849634
1738,-0.03348978494623678
1739,-0.03994139784946249
1740,-0.03994139784946249
1741,-0.05607043010752699
1742,-0.08187688172043028
1743,-0.10445752688172072
1744,-0.10123172043010764
1745,-0.07865107526881743
1746,-0.06252204301075293
1747,-0.043167204301075346
1748,-0.030263978494623922
1749,-0.023812365591397988
1750,-0.027038172043010844
1751,-0.036715591397849634
1752,-0.03994139784946249
1753,-0.03348978494623678
1754,-0.023812365591397988
1755,-0.023812365591397988
1756,-0.027038172043010844
1757,-0.036715591397849634
1758,-0.05607043010752699
1759,-0.07865107526881743
1760,-0.09800591397849479
1761,-0.088328494623656
1762,-0.06574784946236578
1763,-0.046393010752688424
1764,-0.03348978494623678
1765,-0.023812365591397988
1766,-0.023812365591397988
1767,-0.023812365591397988
1768,-0.030263978494623922
1769,-0.03348978494623678
1770,-0.030263978494623922
1771,-0.017360752688172276
1772,-0.01413494623655942
1773,-0.020586559139785132
1774,-0.036715591397849634
1775,-0.05607043010752699
1776,-0.08187688172043028
1777,-0.08510268817204314
1778,-0.0721994623655915
1779,-0.04961881720430128
1780,-0.03348978494623678
1781,-0.020586559139785132
1782,-0.01413494623655942
1783,-0.01413494623655942
1784,-0.020586559139785132
1785,-0.027038172043010844
1786,-0.023812365591397988
1787,-0.007683333333333486
1788,-0.00445752688172063
1789,-0.010909139784946342
1790,-0.017360752688172276
1791,-0.03348978494623678
1792,-0.06252204301075293
1793,-0.07865107526881743
1794,-0.06897365591397864
1795,-0.043167204301075346
1796,-0.020586559139785132
1797,0.0019940860215053036
1798,0.02134892473118266
1799,0.03102634408602123
1800,0.03425215053763431
1801,0.03747795698924716
1802,0.05038118279569881
1803,0.06973602150537617
1804,0.09231666666666638
1805,0.10199408602150517
1806,0.10521989247311803
1807,0.1084456989247311
1808,0.09876827956989231
1809,0.07941344086021496
1810,0.06651021505376331
1811,0.07296182795698902
1812,0.08263924731182781
1813,0.08586505376344067
1814,0.08586505376344067
1815,0.08586505376344067
1816,0.06973602150537617
1817,0.04715537634408573
1818,0.03102634408602123
1819,0.027800537634408373
1820,0.027800537634408373
1821,0.03425215053763431
1822,0.03425215053763431
1823,0.03747795698924716
1824,0.027800537634408373
1825,0.0052198924731181595
1826,-0.030263978494623922
1827,-0.043167204301075346
1828,-0.043167204301075346
1829,-0.03994139784946249
1830,-0.043167204301075346
1831,-0.04961881720430128
1832,-0.06252204301075293
1833,-0.08510268817204314
1834,-0.10768333333333358
1835,-0.12058655913978522
1836,-0.11736075268817214
1837,-0.11736075268817214
1838,-0.12381236559139808
1839,-0.13994139784946258
1840,-0.16574784946236587
1841,-0.20768333333333344
1842,-0.24639301075268838
1843,-0.28187688172043024
1844,-0.2851026881720431
1845,-0.27219946236559167
1846,-0.2528446236559141
1847,-0.2367155913978496
1848,-0.2205865591397851
1849,-0.20768333333333344
1850,-0.20768333333333344
1851,-0.21090913978494652
1852,-0.20445752688172059
1853,-0.18832849462365608
1854,-0.17542526881720444
1855,-0.16897365591397873
1856,-0.16574784946236587
1857,-0.16897365591397873
1858,-0.18187688172043037
1859,-0.20123172043010773
1860,-0.20768333333333344
1861,-0.19155430107526894
1862,-0.16574784946236587
1863,-0.14316720430107543
1864,-0.12058655913978522
1865,-0.10445752688172072
1866,-0.10123172043010764
1867,-0.10123172043010764
1868,-0.10123172043010764
1869,-0.09155430107526907
1870,-0.07542526881720457
1871,-0.05607043010752699
1872,-0.04961881720430128
1873,-0.046393010752688424
1874,-0.046393010752688424
1875,-0.05929623655914007
1876,-0.0721994623655915
1877,-0.06897365591397864
1878,-0.052844623655914136
1879,-0.027038172043010844
1880,-0.0012317204301077744
1881,0.02134892473118266
1882,0.03425215053763431
1883,0.03425215053763431
1884,0.024574731182795517
1885,0.024574731182795517
1886,0.03102634408602123
1887,0.043929569892472875
1888,0.05038118279569881
1889,0.05038118279569881
1890,0.04715537634408573
1891,0.03425215053763431
1892,0.011671505376343871
1893,-0.007683333333333486
1894,0.0019940860215053036
1895,0.02134892473118266
1896,0.04070376344086002
1897,0.053606989247311665
1898,0.06651021505376331
1899,0.07296182795698902
1900,0.06973602150537617
1901,0.06005860215053738
1902,0.06328440860215045
1903,0.07296182795698902
1904,0.08586505376344067
1905,0.08586505376344067
1906,0.08263924731182781
1907,0.07618763440860188
1908,0.06005860215053738
1909,0.03747795698924716
1910,0.024574731182795517
1911,0.03425215053763431
1912,0.053606989247311665
1913,0.07296182795698902
1914,0.08586505376344067
1915,0.09554247311827946
1916,0.09554247311827946
1917,0.08586505376344067
1918,0.07296182795698902
1919,0.07618763440860188
1920,0.08586505376344067
1921,0.09231666666666638
1922,0.08586505376344067
1923,0.08263924731182781
1924,0.06973602150537617
1925,0.04715537634408573
1926,0.024574731182795517
1927,0.024574731182795517
1928,0.043929569892472875
1929,0.06651021505376331
1930,0.08263924731182781
1931,0.09876827956989231
1932,0.10521989247311803
1933,0.10199408602150517
1934,0.08909086021505352
1935,0.08263924731182781
1936,0.08909086021505352
1937,0.10199408602150517
1938,0.1084456989247311
1939,0.10199408602150517
1940,0.09876827956989231
1941,0.07941344086021496
1942,0.053606989247311665
1943,0.03102634408602123
1944,0.04070376344086002
1945,0.06328440860215045
1946,0.08263924731182781
1947,0.09876827956989231
1948,0.11489731182795682
1949,0.11812311827956967
1950,0.11489731182795682
1951,0.10521989247311803
1952,0.10521989247311803
1953,0.11489731182795682
1954,0.12780053763440846
1955,0.12780053763440846
1956,0.12780053763440846
1957,0.11812311827956967
1958,0.10199408602150517
1959,0.07941344086021496
1960,0.06973602150537617
1961,0.08263924731182781
1962,0.10521989247311803
1963,0.12780053763440846
1964,0.14715537634408582
1965,0.1568327956989246
1966,0.16005860215053747
1967,0.15360698924731175
1968,0.14715537634408582
1969,0.15360698924731175
1970,0.16651021505376318
1971,0.17618763440860197
1972,0.17941344086021482
1973,0.17618763440860197
1974,0.16651021505376318
1975,0.15038118279569868
1976,0.13102634408602132
1977,0.13102634408602132
1978,0.15038118279569868
1979,0.1729618279569891
1980,0.19231666666666647
1981,0.20521989247311812
1982,0.21167150537634383
1983,0.21167150537634383
1984,0.20521989247311812
1985,0.19554247311827933
1986,0.20199408602150526
1987,0.21167150537634383
1988,0.2148973118279569
1989,0.20844569892473097
1990,0.20199408602150526
1991,0.18263924731182768
1992,0.16005860215053747
1993,0.1407037634408601
1994,0.13747795698924703
1995,0.15360698924731175
1996,0.1729618279569891
1997,0.18263924731182768
1998,0.19231666666666647
1999,0.1890908602150536
2000,0.17941344086021482
2001,0.16651021505376318
2002,0.16328440860215032
2003,0.16328440860215032
2004,0.16651021505376318
2005,0.1568327956989246
2006,0.14715537634408582
2007,0.13102634408602132
2008,0.11167150537634396
2009,0.08263924731182781
2010,0.06328440860215045
2011,0.07296182795698902
2012,0.08586505376344067
2013,0.10199408602150517
2014,0.11489731182795682
2015,0.12134892473118253
2016,0.11167150537634396
2017,0.09876827956989231
2018,0.08586505376344067
2019,0.08586505376344067
2020,0.08909086021505352
2021,0.08909086021505352
2022,0.08586505376344067
2023,0.07618763440860188
2024,0.06005860215053738
2025,0.03425215053763431
2026,0.008445698924731015
2027,0.0019940860215053036
2028,0.014897311827956727
2029,0.03425215053763431
2030,0.04715537634408573
2031,0.053606989247311665
2032,0.053606989247311665
2033,0.04715537634408573
2034,0.03425215053763431
2035,0.024574731182795517
2036,0.03102634408602123
2037,0.03425215053763431
2038,0.03425215053763431
2039,0.03102634408602123
2040,0.018123118279569805
2041,-0.0012317204301077744
2042,-0.030263978494623922
2043,-0.052844623655914136
2044,-0.04961881720430128
2045,-0.030263978494623922
2046,-0.017360752688172276
2047,-0.00445752688172063
2048,0.0052198924731181595
2049,0.0052198924731181595
2050,-0.007683333333333486
2051,-0.017360752688172276
2052,-0.023812365591397988
2053,-0.017360752688172276
2054,-0.01413494623655942
2055,-0.017360752688172276
2056,-0.023812365591397988
2057,-0.03348978494623678
2058,-0.05929623655914007
2059,-0.09155430107526907
2060,-0.10445752688172072
2061,-0.09478010752688193
2062,-0.07542526881720457
2063,-0.06252204301075293
2064,-0.04961881720430128
2065,-0.043167204301075346
2066,-0.04961881720430128
2067,-0.05929623655914007
2068,-0.0721994623655915
2069,-0.0721994623655915
2070,-0.06252204301075293
2071,-0.05929623655914007
2072,-0.05929623655914007
2073,-0.06574784946236578
2074,-0.07865107526881743
2075,-0.10123172043010764
2076,-0.12381236559139808
2077,-0.12381236559139808
2078,-0.10445752688172072
2079,-0.088328494623656
2080,-0.07542526881720457
2081,-0.06574784946236578
2082,-0.06252204301075293
2083,-0.06574784946236578
2084,-0.07865107526881743
2085,-0.08510268817204314
2086,-0.07865107526881743
2087,-0.06574784946236578
2088,-0.05929623655914007
2089,-0.06252204301075293
2090,-0.06897365591397864
2091,-0.08187688172043028
2092,-0.10768333333333358
2093,-0.12703817204301093
2094,-0.12058655913978522
2095,-0.10123172043010764
2096,-0.08187688172043028
2097,-0.06574784946236578
2098,-0.052844623655914136
2099,-0.052844623655914136
2100,-0.06252204301075293
2101,-0.0721994623655915
2102,-0.06897365591397864
2103,-0.05929623655914007
2104,-0.052844623655914136
2105,-0.052844623655914136
2106,-0.05607043010752699
2107,-0.06897365591397864
2108,-0.08510268817204314
2109,-0.11090913978494643
2110,-0.12058655913978522
2111,-0.10768333333333358
2112,-0.088328494623656
2113,-0.06897365591397864
2114,-0.05607043010752699
2115,-0.043167204301075346
2116,-0.046393010752688424
2117,-0.052844623655914136
2118,-0.06252204301075293
2119,-0.05929623655914007
2120,-0.04961881720430128
2121,-0.043167204301075346
2122,-0.046393010752688424
2123,-0.052844623655914136
2124,-0.06574784946236578
2125,-0.08510268817204314
2126,-0.10768333333333358
2127,-0.10768333333333358
2128,-0.09155430107526907
2129,-0.0721994623655915
2130,-0.05607043010752699
2131,-0.043167204301075346
2132,-0.03994139784946249
2133,-0.043167204301075346
2134,-0.052844623655914136
2135,-0.05607043010752699
2136,-0.046393010752688424
2137,-0.036715591397849634
2138,-0.03348978494623678
2139,-0.036715591397849634
2140,-0.043167204301075346
2141,-0.05607043010752699
2142,-0.07865107526881743
2143,-0.10123172043010764
2144,-0.09478010752688193
2145,-0.0721994623655915
2146,-0.05607043010752699
2147,-0.03994139784946249
2148,-0.027038172043010844
2149,-0.027038172043010844
2150,-0.036715591397849634
2151,-0.046393010752688424
2152,-0.043167204301075346
2153,-0.03348978494623678
2154,-0.030263978494623922
2155,-0.027038172043010844
2156,-0.03348978494623678
2157,-0.043167204301075346
2158,-0.06574784946236578
2159,-0.088328494623656
2160,-0.10123172043010764
2161,-0.088328494623656
2162,-0.06897365591397864
2163,-0.052844623655914136
2164,-0.03994139784946249
2165,-0.03348978494623678
2166,-0.03348978494623678
2167,-0.043167204301075346
2168,-0.052844623655914136
2169,-0.046393010752688424
2170,-0.03348978494623678
2171,-0.023812365591397988
2172,-0.027038172043010844
2173,-0.03348978494623678
2174,-0.046393010752688424
2175,-0.06897365591397864
2176,-0.09155430107526907
2177,-0.09155430107526907
2178,-0.07542526881720457
2179,-0.05607043010752699
2180,-0.03994139784946249
2181,-0.027038172043010844
2182,-0.020586559139785132
2183,-0.023812365591397988
2184,-0.030263978494623922
2185,-0.036715591397849634
2186,-0.027038172043010844
2187,-0.017360752688172276
2188,-0.01413494623655942
2189,-0.017360752688172276
2190,-0.027038172043010844
2191,-0.043167204301075346
2192,-0.06897365591397864
2193,-0.08187688172043028
2194,-0.07542526881720457
2195,-0.052844623655914136
2196,-0.03348978494623678
2197,-0.017360752688172276
2198,-0.0012317204301077744
2199,-0.00445752688172063
2200,-0.010909139784946342
2201,-0.020586559139785132
2202,-0.01413494623655942
2203,-0.00445752688172063
2204,0.0019940860215053036
2205,-0.0012317204301077744
2206,-0.007683333333333486
2207,-0.01413494623655942
2208,-0.030263978494623922
2209,-0.05607043010752699
2210,-0.06252204301075293
2211,-0.04961881720430128
2212,-0.030263978494623922
2213,-0.01413494623655942
2214,-0.0012317204301077744
2215,0.008445698924731015
2216,0.0019940860215053036
2217,-0.00445752688172063
2218,-0.01413494623655942
2219,-0.010909139784946342
2220,-0.0012317204301077744
2221,0.0019940860215053036
2222,0.0019940860215053036
2223,-0.0012317204301077744
2224,-0.017360752688172276
2225,-0.03994139784946249
2226,-0.05607043010752699
2227,-0.04961881720430128
2228,-0.030263978494623922
2229,-0.010909139784946342
2230,0.0052198924731181595
2231,0.02134892473118266
2232,0.027800537634408373
2233,0.02134892473118266
2234,0.011671505376343871
2235,0.011671505376343871
2236,0.02134892473118266
2237,0.03102634408602123
2238,0.03102634408602123
2239,0.027800537634408373
2240,0.018123118279569805
2241,-0.0012317204301077744
2242,-0.027038172043010844
2243,-0.03994139784946249
2244,-0.030263978494623922
2245,-0.01413494623655942
2246,0.0019940860215053036
2247,0.014897311827956727
2248,0.024574731182795517
2249,0.02134892473118266
2250,0.011671505376343871
2251,-0.0012317204301077744
2252,0.0019940860215053036
2253,0.011671505376343871
2254,0.018123118279569805
2255,0.011671505376343871
2256,0.008445698924731015
2257,-0.007683333333333486
2258,-0.030263978494623922
2259,-0.05929623655914007
2260,-0.06574784946236578
2261,-0.052844623655914136
2262,-0.036715591397849634
2263,-0.023812365591397988
2264,-0.01413494623655942
2265,-0.007683333333333486
2266,-0.010909139784946342
2267,-0.020586559139785132
2268,-0.030263978494623922
2269,-0.027038172043010844
2270,-0.017360752688172276
2271,-0.017360752688172276
2272,-0.020586559139785132
2273,-0.023812365591397988
2274,-0.036715591397849634
2275,-0.05929623655914007
2276,-0.08187688172043028
2277,-0.08187688172043028
2278,-0.06574784946236578
2279,-0.046393010752688424
2280,-0.03348978494623678
2281,-0.020586559139785132
2282,-0.017360752688172276
2283,-0.023812365591397988
2284,-0.03348978494623678
2285,-0.03348978494623678
2286,-0.023812365591397988
2287,-0.017360752688172276
2288,-0.020586559139785132
2289,-0.023812365591397988
2290,-0.030263978494623922
2291,-0.046393010752688424
2292,-0.06897365591397864
2293,-0.08187688172043028
2294,-0.07542526881720457
2295,-0.05607043010752699
2296,-0.043167204301075346
2297,-0.027038172043010844
2298,-0.017360752688172276
2299,-0.023812365591397988
2300,-0.03348978494623678
2301,-0.03994139784946249
2302,-0.036715591397849634
2303,-0.027038172043010844
2304,-0.017360752688172276
2305,-0.017360752688172276
2306,-0.023812365591397988
2307,-0.03348978494623678
2308,-0.052844623655914136
2309,-0.0721994623655915
2310,-0.07542526881720457
2311,-0.05929623655914007
2312,-0.036715591397849634
2313,-0.020586559139785132
2314,-0.007683333333333486
2315,0.0019940860215053036
2316,-0.0012317204301077744
2317,-0.010909139784946342
2318,-0.017360752688172276
2319,-0.01413494623655942
2320,-0.0012317204301077744
2321,0.0019940860215053036
2322,0.0019940860215053036
2323,-0.00445752688172063
2324,-0.017360752688172276
2325,-0.03994139784946249
2326,-0.06252204301075293
2327,-0.05607043010752699
2328,-0.036715591397849634
2329,-0.020586559139785132
2330,-0.00445752688172063
2331,0.0052198924731181595
2332,0.008445698924731015
2333,0.0019940860215053036
2334,-0.007683333333333486
2335,-0.007683333333333486
2336,0.0019940860215053036
2337,0.008445698924731015
2338,0.011671505376343871
2339,0.0052198924731181595
2340,-0.00445752688172063
2341,-0.020586559139785132
2342,-0.04961881720430128
2343,-0.06252204301075293
2344,-0.052844623655914136
2345,-0.03348978494623678
2346,-0.01413494623655942
2347,0.0052198924731181595
2348,0.02134892473118266
2349,0.027800537634408373
2350,0.027800537634408373
2351,0.027800537634408373
2352,0.043929569892472875
2353,0.06973602150537617
2354,0.08586505376344067
2355,0.10199408602150517
2356,0.1084456989247311
2357,0.10521989247311803
2358,0.09554247311827946
2359,0.07941344086021496
2360,0.08909086021505352
2361,0.11489731182795682
2362,0.14392956989247296
2363,0.16005860215053747
2364,0.16973602150537626
2365,0.16328440860215032
2366,0.1407037634408601
2367,0.11489731182795682
2368,0.09554247311827946
2369,0.09231666666666638
2370,0.09554247311827946
2371,0.08909086021505352
2372,0.07941344086021496
2373,0.06328440860215045
2374,0.04715537634408573
2375,0.024574731182795517
2376,0.008445698924731015
2377,0.018123118279569805
2378,0.03425215053763431
2379,0.04715537634408573
2380,0.053606989247311665
2381,0.04715537634408573
2382,0.027800537634408373
2383,-0.0012317204301077744
2384,-0.03348978494623678
2385,-0.05607043010752699
2386,-0.06252204301075293
2387,-0.06574784946236578
2388,-0.0721994623655915
2389,-0.08510268817204314
2390,-0.10123172043010764
2391,-0.12381236559139808
2392,-0.15929623655913994
2393,-0.18187688172043037
2394,-0.19155430107526894
2395,-0.19155430107526894
2396,-0.1947801075268818
2397,-0.1947801075268818
2398,-0.1947801075268818
2399,-0.20123172043010773
2400,-0.21090913978494652
2401,-0.2205865591397851
2402,-0.21413494623655938
2403,-0.19800591397849487
2404,-0.18510268817204323
2405,-0.18510268817204323
2406,-0.18510268817204323
2407,-0.19155430107526894
2408,-0.20768333333333344
2409,-0.2205865591397851
2410,-0.21413494623655938
2411,-0.18832849462365608
2412,-0.15929623655913994
2413,-0.13671559139784972
2414,-0.11736075268817214
2415,-0.10123172043010764
2416,-0.09800591397849479
2417,-0.10123172043010764
2418,-0.09478010752688193
2419,-0.07865107526881743
2420,-0.05929623655914007
2421,-0.046393010752688424
2422,-0.03994139784946249
2423,-0.03994139784946249
2424,-0.043167204301075346
2425,-0.05607043010752699
2426,-0.06897365591397864
2427,-0.052844623655914136
2428,-0.027038172043010844
2429,-0.0012317204301077744
2430,0.024574731182795517
2431,0.04070376344086002
2432,0.04715537634408573
2433,0.043929569892472875
2434,0.03747795698924716
2435,0.043929569892472875
2436,0.06005860215053738
2437,0.07296182795698902
2438,0.07296182795698902
2439,0.06973602150537617
2440,0.06328440860215045
2441,0.05038118279569881
2442,0.027800537634408373
2443,0.024574731182795517
2444,0.03747795698924716
2445,0.06005860215053738
2446,0.07618763440860188
2447,0.09231666666666638
2448,0.10521989247311803
2449,0.10521989247311803
2450,0.09876827956989231
2451,0.08909086021505352
2452,0.09554247311827946
2453,0.1084456989247311
2454,0.11489731182795682
2455,0.11489731182795682
2456,0.11167150537634396
2457,0.09876827956989231
2458,0.07618763440860188
2459,0.053606989247311665
2460,0.05038118279569881
2461,0.06651021505376331
2462,0.08586505376344067
2463,0.10199408602150517
2464,0.11812311827956967
2465,0.11812311827956967
2466,0.11489731182795682
2467,0.10521989247311803
2468,0.10199408602150517
2469,0.1084456989247311
2470,0.12134892473118253
2471,0.12134892473118253
2472,0.11812311827956967
2473,0.11167150537634396
2474,0.09554247311827946
2475,0.07296182795698902
2476,0.053606989247311665
2477,0.06328440860215045
2478,0.07941344086021496
2479,0.09554247311827946
2480,0.1084456989247311
2481,0.11812311827956967
2482,0.12134892473118253
2483,0.11489731182795682
2484,0.10521989247311803
2485,0.10521989247311803
2486,0.11489731182795682
2487,0.12134892473118253
2488,0.12134892473118253
2489,0.11489731182795682
2490,0.10521989247311803
2491,0.08586505376344067
2492,0.06328440860215045
2493,0.053606989247311665
2494,0.07296182795698902
2495,0.09554247311827946
2496,0.11489731182795682
2497,0.1245747311827956
2498,0.13425215053763417
2499,0.13102634408602132
2500,0.12134892473118253
2501,0.11489731182795682
2502,0.11812311827956967
2503,0.12780053763440846
2504,0.13425215053763417
2505,0.13425215053763417
2506,0.13102634408602132
2507,0.11812311827956967
2508,0.09876827956989231
2509,0.07618763440860188
2510,0.07941344086021496
2511,0.09876827956989231
2512,0.12134892473118253
2513,0.13747795698924703
2514,0.15038118279569868
2515,0.15360698924731175
2516,0.15360698924731175
2517,0.14715537634408582
2518,0.14715537634408582
2519,0.15360698924731175
2520,0.1729618279569891
2521,0.17941344086021482
2522,0.18263924731182768
2523,0.17618763440860197
2524,0.16328440860215032
2525,0.1407037634408601
2526,0.13102634408602132
2527,0.1407037634408601
2528,0.16328440860215032
2529,0.18263924731182768
2530,0.19876827956989218
2531,0.21167150537634383
2532,0.2148973118279569
2533,0.20844569892473097
2534,0.20199408602150526
2535,0.20521989247311812
2536,0.2148973118279569
2537,0.22780053763440833
2538,0.22780053763440833
2539,0.22457473118279547
2540,0.21167150537634383
2541,0.19231666666666647
2542,0.16973602150537626
2543,0.16005860215053747
2544,0.17618763440860197
2545,0.19554247311827933
2546,0.21167150537634383
2547,0.22134892473118262
2548,0.22780053763440833
2549,0.22134892473118262
2550,0.21167150537634383
2551,0.19876827956989218
2552,0.20199408602150526
2553,0.20844569892473097
2554,0.20521989247311812
2555,0.19876827956989218
2556,0.18586505376344076
2557,0.16651021505376318
2558,0.13747795698924703
2559,0.11167150537634396
2560,0.1084456989247311
2561,0.12134892473118253
2562,0.13747795698924703
2563,0.15038118279569868
2564,0.15360698924731175
2565,0.15360698924731175
2566,0.14392956989247296
2567,0.13102634408602132
2568,0.12134892473118253
2569,0.1245747311827956
2570,0.12780053763440846
2571,0.1245747311827956
2572,0.11489731182795682
2573,0.10199408602150517
2574,0.07941344086021496
2575,0.05038118279569881
2576,0.03102634408602123
2577,0.03747795698924716
2578,0.05683279569892452
2579,0.06973602150537617
2580,0.07618763440860188
2581,0.08263924731182781
2582,0.07941344086021496
2583,0.06973602150537617
2584,0.053606989247311665
2585,0.05038118279569881
2586,0.06005860215053738
2587,0.06328440860215045
2588,0.06005860215053738
2589,0.05038118279569881
2590,0.03102634408602123
2591,0.008445698924731015
2592,-0.020586559139785132
2593,-0.027038172043010844
2594,-0.017360752688172276
2595,-0.0012317204301077744
2596,0.018123118279569805
2597,0.027800537634408373
2598,0.03102634408602123
2599,0.024574731182795517
2600,0.018123118279569805
2601,0.008445698924731015
2602,0.008445698924731015
2603,0.018123118279569805
2604,0.018123118279569805
2605,0.011671505376343871
2606,-0.0012317204301077744
2607,-0.020586559139785132
2608,-0.04961881720430128
2609,-0.0721994623655915
2610,-0.06897365591397864
2611,-0.04961881720430128
2612,-0.030263978494623922
2613,-0.017360752688172276
2614,-0.007683333333333486
2615,-0.007683333333333486
2616,-0.017360752688172276
2617,-0.030263978494623922
2618,-0.036715591397849634
2619,-0.030263978494623922
2620,-0.023812365591397988
2621,-0.023812365591397988
2622,-0.03348978494623678
2623,-0.043167204301075346
2624,-0.06252204301075293
2625,-0.088328494623656
2626,-0.10123172043010764
2627,-0.09155430107526907
2628,-0.0721994623655915
2629,-0.05607043010752699
2630,-0.03994139784946249
2631,-0.030263978494623922
2632,-0.03348978494623678
2633,-0.043167204301075346
2634,-0.052844623655914136
2635,-0.04961881720430128
2636,-0.036715591397849634
2637,-0.03348978494623678
2638,-0.036715591397849634
2639,-0.043167204301075346
2640,-0.05607043010752699
2641,-0.07542526881720457
2642,-0.10123172043010764
2643,-0.10445752688172072
2644,-0.08510268817204314
2645,-0.06252204301075293
2646,-0.046393010752688424
2647,-0.036715591397849634
2648,-0.030263978494623922
2649,-0.03348978494623678
2650,-0.043167204301075346
2651,-0.04961881720430128
2652,-0.03994139784946249
2653,-0.027038172043010844
2654,-0.023812365591397988
2655,-0.027038172043010844
2656,-0.03348978494623678
2657,-0.052844623655914136
2658,-0.07542526881720457
2659,-0.09800591397849479
2660,-0.09155430107526907
2661,-0.0721994623655915
2662,-0.052844623655914136
2663,-0.03348978494623678
2664,-0.027038172043010844
2665,-0.020586559139785132
2666,-0.027038172043010844
2667,-0.03994139784946249
2668,-0.043167204301075346
2669,-0.03348978494623678
2670,-0.023812365591397988
2671,-0.023812365591397988
2672,-0.030263978494623922
2673,-0.03994139784946249
2674,-0.05607043010752699
2675,-0.07865107526881743
2676,-0.09478010752688193
2677,-0.08187688172043028
2678,-0.05929623655914007
2679,-0.043167204301075346
2680,-0.030263978494623922
2681,-0.020586559139785132
2682,-0.020586559139785132
2683,-0.030263978494623922
2684,-0.03994139784946249
2685,-0.03348978494623678
2686,-0.020586559139785132
2687,-0.01413494623655942
2688,-0.017360752688172276
2689,-0.023812365591397988
2690,-0.03994139784946249
2691,-0.06252204301075293
2692,-0.08510268817204314
2693,-0.088328494623656
2694,-0.0721994623655915
2695,-0.04961881720430128
2696,-0.03348978494623678
2697,-0.020586559139785132
2698,-0.020586559139785132
2699,-0.027038172043010844
2700,-0.030263978494623922
2701,-0.03994139784946249
2702,-0.030263978494623922
2703,-0.020586559139785132
2704,-0.017360752688172276
2705,-0.023812365591397988
2706,-0.030263978494623922
2707,-0.04961881720430128
2708,-0.0721994623655915
2709,-0.09478010752688193
2710,-0.08510268817204314
2711,-0.06252204301075293
2712,-0.043167204301075346
2713,-0.027038172043010844
2714,-0.017360752688172276
2715,-0.01413494623655942
2716,-0.023812365591397988
2717,-0.03348978494623678
2718,-0.03348978494623678
2719,-0.023812365591397988
2720,-0.010909139784946342
2721,-0.01413494623655942
2722,-0.020586559139785132
2723,-0.030263978494623922
2724,-0.04961881720430128
2725,-0.07542526881720457
2726,-0.088328494623656
2727,-0.07542526881720457
2728,-0.052844623655914136
2729,-0.03348978494623678
2730,-0.020586559139785132
2731,-0.007683333333333486
2732,-0.007683333333333486
2733,-0.017360752688172276
2734,-0.027038172043010844
2735,-0.023812365591397988
2736,-0.010909139784946342
2737,-0.00445752688172063
2738,-0.010909139784946342
2739,-0.017360752688172276
2740,-0.030263978494623922
2741,-0.052844623655914136
2742,-0.07542526881720457
2743,-0.07542526881720457
2744,-0.05607043010752699
2745,-0.03348978494623678
2746,-0.020586559139785132
2747,-0.007683333333333486
2748,-0.00445752688172063
2749,-0.007683333333333486
2750,-0.017360752688172276
2751,-0.023812365591397988
2752,-0.017360752688172276
2753,-0.007683333333333486
2754,-0.00445752688172063
2755,-0.010909139784946342
2756,-0.020586559139785132
2757,-0.03348978494623678
2758,-0.052844623655914136
2759,-0.0721994623655915
2760,-0.06574784946236578
2761,-0.046393010752688424
2762,-0.027038172043010844
2763,-0.010909139784946342
2764,0.0019940860215053036
2765,0.0019940860215053036
2766,-0.0012317204301077744
2767,-0.01413494623655942
2768,-0.01413494623655942
2769,-0.00445752688172063
2770,0.0019940860215053036
2771,0.0019940860215053036
2772,-0.00445752688172063
2773,-0.020586559139785132
2774,-0.043167204301075346
2775,-0.06897365591397864
2776,-0.07865107526881743
2777,-0.06574784946236578
2778,-0.03994139784946249
2779,-0.020586559139785132
2780,-0.00445752688172063
2781,0.0052198924731181595
2782,0.008445698924731015
2783,-0.0012317204301077744
2784,-0.01413494623655942
2785,-0.010909139784946342
2786,-0.0012317204301077744
2787,0.008445698924731015
2788,0.008445698924731015
2789,0.0052198924731181595
2790,-0.007683333333333486
2791,-0.027038172043010844
2792,-0.052844623655914136
2793,-0.052844623655914136
2794,-0.030263978494623922
2795,-0.007683333333333486
2796,0.011671505376343871
2797,0.024574731182795517
2798,0.027800537634408373
2799,0.024574731182795517
2800,0.014897311827956727
2801,0.008445698924731015
2802,0.018123118279569805
2803,0.027800537634408373
2804,0.03102634408602123
2805,0.024574731182795517
2806,0.02134892473118266
2807,0.0019940860215053036
2808,-0.023812365591397988
2809,-0.043167204301075346
2810,-0.03994139784946249
2811,-0.020586559139785132
2812,-0.00445752688172063
2813,0.0052198924731181595
2814,0.014897311827956727
2815,0.018123118279569805
2816,0.008445698924731015
2817,-0.00445752688172063
2818,-0.010909139784946342
2819,-0.00445752688172063
2820,0.0019940860215053036
2821,-0.0012317204301077744
2822,-0.010909139784946342
2823,-0.027038172043010844
2824,-0.052844623655914136
2825,-0.07865107526881743
2826,-0.09155430107526907
2827,-0.08187688172043028
2828,-0.05929623655914007
2829,-0.043167204301075346
2830,-0.030263978494623922
2831,-0.023812365591397988
2832,-0.027038172043010844
2833,-0.03994139784946249
2834,-0.052844623655914136
2835,-0.04961881720430128
2836,-0.03994139784946249
2837,-0.03348978494623678
2838,-0.036715591397849634
2839,-0.03994139784946249
2840,-0.05607043010752699
2841,-0.07542526881720457
2842,-0.10123172043010764
2843,-0.10123172043010764
2844,-0.07865107526881743
2845,-0.05607043010752699
2846,-0.036715591397849634
2847,-0.023812365591397988
2848,-0.020586559139785132
2849,-0.027038172043010844
2850,-0.036715591397849634
2851,-0.036715591397849634
2852,-0.027038172043010844
2853,-0.017360752688172276
2854,-0.017360752688172276
2855,-0.020586559139785132
2856,-0.030263978494623922
2857,-0.04961881720430128
2858,-0.07542526881720457
2859,-0.09155430107526907
2860,-0.07865107526881743
2861,-0.05607043010752699
2862,-0.03994139784946249
2863,-0.027038172043010844
2864,-0.01413494623655942
2865,-0.01413494623655942
2866,-0.023812365591397988
2867,-0.036715591397849634
2868,-0.03994139784946249
2869,-0.027038172043010844
2870,-0.017360752688172276
2871,-0.017360752688172276
2872,-0.023812365591397988
2873,-0.03348978494623678
2874,-0.05607043010752699
2875,-0.07865107526881743
2876,-0.088328494623656
2877,-0.07542526881720457
2878,-0.04961881720430128
2879,-0.030263978494623922
2880,-0.01413494623655942
2881,-0.007683333333333486
2882,-0.010909139784946342
2883,-0.017360752688172276
2884,-0.023812365591397988
2885,-0.017360752688172276
2886,-0.007683333333333486
2887,-0.0012317204301077744
2888,-0.007683333333333486
2889,-0.017360752688172276
2890,-0.030263978494623922
2891,-0.052844623655914136
2892,-0.07865107526881743
2893,-0.07542526881720457
2894,-0.05607043010752699
2895,-0.03348978494623678
2896,-0.017360752688172276
2897,-0.00445752688172063
2898,0.0019940860215053036
2899,-0.00445752688172063
2900,-0.017360752688172276
2901,-0.023812365591397988
2902,-0.01413494623655942
2903,0.0019940860215053036
2904,0.008445698924731015
2905,0.011671505376343871
2906,0.011671505376343871
2907,-0.0012317204301077744
2908,-0.017360752688172276
2909,-0.023812365591397988
2910,-0.0012317204301077744
2911,0.03425215053763431
2912,0.06651021505376331
2913,0.09876827956989231
2914,0.1245747311827956
2915,0.13102634408602132
2916,0.13425215053763417
2917,0.13102634408602132
2918,0.1407037634408601
2919,0.16005860215053747
2920,0.17618763440860197
2921,0.17618763440860197
2922,0.16328440860215032
2923,0.13747795698924703
2924,0.10199408602150517
2925,0.05683279569892452
2926,0.03102634408602123
2927,0.03425215053763431
2928,0.04715537634408573
2929,0.05683279569892452
2930,0.05683279569892452
2931,0.05683279569892452
2932,0.043929569892472875
2933,0.024574731182795517
2934,0.014897311827956727
2935,0.014897311827956727
2936,0.02134892473118266
2937,0.024574731182795517
2938,0.0052198924731181595
2939,-0.017360752688172276
2940,-0.05607043010752699
2941,-0.10123172043010764
2942,-0.14961881720430115
2943,-0.17219946236559158
2944,-0.16897365591397873
2945,-0.15929623655913994
2946,-0.15284462365591422
2947,-0.14316720430107543
2948,-0.13994139784946258
2949,-0.14961881720430115
2950,-0.1625220430107528
2951,-0.17542526881720444
2952,-0.18187688172043037
2953,-0.18832849462365608
2954,-0.20445752688172059
2955,-0.22381236559139794
2956,-0.2367155913978496
2957,-0.2625220430107529
2958,-0.29155430107526903
2959,-0.30768333333333353
2960,-0.29155430107526903
2961,-0.26574784946236574
2962,-0.23994139784946245
2963,-0.21736075268817223
2964,-0.1947801075268818
2965,-0.18510268817204323
2966,-0.18187688172043037
2967,-0.18187688172043037
2968,-0.16897365591397873
2969,-0.14961881720430115
2970,-0.13348978494623664
2971,-0.12381236559139808
2972,-0.12381236559139808
2973,-0.12703817204301093
2974,-0.13671559139784972
2975,-0.15284462365591422
2976,-0.1463930107526883
2977,-0.12058655913978522
2978,-0.07865107526881743
2979,-0.052844623655914136
2980,-0.027038172043010844
2981,-0.007683333333333486
2982,-0.0012317204301077744
2983,0.0019940860215053036
2984,0.0019940860215053036
2985,0.014897311827956727
2986,0.03102634408602123
2987,0.043929569892472875
2988,0.04715537634408573
2989,0.043929569892472875
2990,0.03425215053763431
2991,0.011671505376343871
2992,-0.007683333333333486
2993,0.0052198924731181595
2994,0.027800537634408373
2995,0.05038118279569881
2996,0.06973602150537617
2997,0.08263924731182781
2998,0.08586505376344067
2999,0.07941344086021496
3000,0.06973602150537617
3001,0.06973602150537617
3002,0.07618763440860188
3003,0.08586505376344067
3004,0.08909086021505352
3005,0.08263924731182781
3006,0.07296182795698902
3007,0.053606989247311665
3008,0.024574731182795517
3009,0.011671505376343871
3010,0.024574731182795517
3011,0.04715537634408573
3012,0.06651021505376331
3013,0.08263924731182781
3014,0.09554247311827946
3015,0.09554247311827946
3016,0.09231666666666638
3017,0.08263924731182781
3018,0.08586505376344067
3019,0.09876827956989231
3020,0.10521989247311803
3021,0.10199408602150517
3022,0.09876827956989231
3023,0.08586505376344067
3024,0.06651021505376331
3025,0.03747795698924716
3026,0.03102634408602123
3027,0.04715537634408573
3028,0.07296182795698902
3029,0.09554247311827946
3030,0.10521989247311803
3031,0.11167150537634396
3032,0.10521989247311803
3033,0.09876827956989231
3034,0.08586505376344067
3035,0.09231666666666638
3036,0.10521989247311803
3037,0.11167150537634396
3038,0.10521989247311803
3039,0.09554247311827946
3040,0.07618763440860188
3041,0.05038118279569881
3042,0.03102634408602123
3043,0.03747795698924716
3044,0.06005860215053738
3045,0.08263924731182781
3046,0.10199408602150517
3047,0.11489731182795682
3048,0.12134892473118253
3049,0.11489731182795682
3050,0.10521989247311803
3051,0.10199408602150517
3052,0.11489731182795682
3053,0.1245747311827956
3054,0.12780053763440846
3055,0.1245747311827956
3056,0.11489731182795682
3057,0.09554247311827946
3058,0.06973602150537617
3059,0.053606989247311665
3060,0.06651021505376331
3061,0.09554247311827946
3062,0.11489731182795682
3063,0.13102634408602132
3064,0.1407037634408601
3065,0.1407037634408601
3066,0.13102634408602132
3067,0.12134892473118253
3068,0.1245747311827956
3069,0.13747795698924703
3070,0.14392956989247296
3071,0.14715537634408582
3072,0.1407037634408601
3073,0.12780053763440846
3074,0.1084456989247311
3075,0.08586505376344067
3076,0.08263924731182781
3077,0.10199408602150517
3078,0.13102634408602132
3079,0.15360698924731175
3080,0.1729618279569891
3081,0.18263924731182768
3082,0.17941344086021482
3083,0.1729618279569891
3084,0.16973602150537626
3085,0.17941344086021482
3086,0.19554247311827933
3087,0.20199408602150526
3088,0.19876827956989218
3089,0.19231666666666647
3090,0.17618763440860197
3091,0.15360698924731175
3092,0.13425215053763417
3093,0.13747795698924703
3094,0.16005860215053747
3095,0.18263924731182768
3096,0.20199408602150526
3097,0.2148973118279569
3098,0.21812311827956976
3099,0.2148973118279569
3100,0.20521989247311812
3101,0.20521989247311812
3102,0.21167150537634383
3103,0.22134892473118262
3104,0.21812311827956976
3105,0.20844569892473097
3106,0.19554247311827933
3107,0.1729618279569891
3108,0.1407037634408601
3109,0.12134892473118253
3110,0.13425215053763417
3111,0.15360698924731175
3112,0.1729618279569891
3113,0.18263924731182768
3114,0.1890908602150536
3115,0.18263924731182768
3116,0.16651021505376318
3117,0.15038118279569868
3118,0.15038118279569868
3119,0.1568327956989246
3120,0.16328440860215032
3121,0.15360698924731175
3122,0.1407037634408601
3123,0.12134892473118253
3124,0.09231666666666638
3125,0.06005860215053738
3126,0.05038118279569881
3127,0.06328440860215045
3128,0.08263924731182781
3129,0.09876827956989231
3130,0.10521989247311803
3131,0.11489731182795682
3132,0.10521989247311803
3133,0.08909086021505352
3134,0.07618763440860188
3135,0.07941344086021496
3136,0.08909086021505352
3137,0.08909086021505352
3138,0.07618763440860188
3139,0.06328440860215045
3140,0.043929569892472875
3141,0.011671505376343871
3142,-0.01413494623655942
3143,-0.007683333333333486
3144,0.008445698924731015
3145,0.027800537634408373
3146,0.04070376344086002
3147,0.05038118279569881
3148,0.05038118279569881
3149,0.043929569892472875
3150,0.024574731182795517
3151,0.024574731182795517
3152,0.03102634408602123
3153,0.03425215053763431
3154,0.03425215053763431
3155,0.02134892473118266
3156,0.008445698924731015
3157,-0.010909139784946342
3158,-0.03994139784946249
3159,-0.05607043010752699
3160,-0.046393010752688424
3161,-0.023812365591397988
3162,-0.010909139784946342
3163,-0.0012317204301077744
3164,0.011671505376343871
3165,0.008445698924731015
3166,-0.00445752688172063
3167,-0.020586559139785132
3168,-0.017360752688172276
3169,-0.007683333333333486
3170,-0.00445752688172063
3171,-0.010909139784946342
3172,-0.020586559139785132
3173,-0.03348978494623678
3174,-0.06252204301075293
3175,-0.09155430107526907
3176,-0.09478010752688193
3177,-0.07865107526881743
3178,-0.05929623655914007
3179,-0.043167204301075346
3180,-0.030263978494623922
3181,-0.027038172043010844
3182,-0.03348978494623678
3183,-0.043167204301075346
3184,-0.04961881720430128
3185,-0.043167204301075346
3186,-0.036715591397849634
3187,-0.03348978494623678
3188,-0.03994139784946249
3189,-0.04961881720430128
3190,-0.0721994623655915
3191,-0.09478010752688193
3192,-0.11413494623655929
3193,-0.10445752688172072
3194,-0.08187688172043028
3195,-0.06252204301075293
3196,-0.046393010752688424
3197,-0.036715591397849634
3198,-0.03348978494623678
3199,-0.03994139784946249
3200,-0.052844623655914136
3201,-0.05607043010752699
3202,-0.03994139784946249
3203,-0.027038172043010844
3204,-0.030263978494623922
3205,-0.043167204301075346
3206,-0.05607043010752699
3207,-0.07865107526881743
3208,-0.10768333333333358
3209,-0.12058655913978522
3210,-0.10768333333333358
3211,-0.08510268817204314
3212,-0.06897365591397864
3213,-0.052844623655914136
3214,-0.03994139784946249
3215,-0.03994139784946249
3216,-0.052844623655914136
3217,-0.06252204301075293
3218,-0.05929623655914007
3219,-0.04961881720430128
3220,-0.03994139784946249
3221,-0.03994139784946249
3222,-0.046393010752688424
3223,-0.05929623655914007
3224,-0.08187688172043028
3225,-0.11090913978494643
3226,-0.11736075268817214
3227,-0.09478010752688193
3228,-0.0721994623655915
3229,-0.052844623655914136
3230,-0.03994139784946249
3231,-0.03348978494623678
3232,-0.03994139784946249
3233,-0.05607043010752699
3234,-0.06252204301075293
3235,-0.05607043010752699
3236,-0.046393010752688424
3237,-0.043167204301075346
3238,-0.04961881720430128
3239,-0.05607043010752699
3240,-0.0721994623655915
3241,-0.09800591397849479
3242,-0.12058655913978522
3243,-0.11413494623655929
3244,-0.08510268817204314
3245,-0.05929623655914007
3246,-0.03994139784946249
3247,-0.03348978494623678
3248,-0.036715591397849634
3249,-0.043167204301075346
3250,-0.05607043010752699
3251,-0.05607043010752699
3252,-0.046393010752688424
3253,-0.03348978494623678
3254,-0.03348978494623678
3255,-0.03994139784946249
3256,-0.05607043010752699
3257,-0.07865107526881743
3258,-0.10445752688172072
3259,-0.11413494623655929
3260,-0.10123172043010764
3261,-0.07542526881720457
3262,-0.05607043010752699
3263,-0.03994139784946249
3264,-0.030263978494623922
3265,-0.036715591397849634
3266,-0.04961881720430128
3267,-0.05929623655914007
3268,-0.05607043010752699
3269,-0.043167204301075346
3270,-0.03348978494623678
3271,-0.036715591397849634
3272,-0.046393010752688424
3273,-0.06252204301075293
3274,-0.088328494623656
3275,-0.11090913978494643
3276,-0.11090913978494643
3277,-0.09155430107526907
3278,-0.06574784946236578
3279,-0.046393010752688424
3280,-0.030263978494623922
3281,-0.023812365591397988
3282,-0.027038172043010844
3283,-0.03994139784946249
3284,-0.046393010752688424
3285,-0.03994139784946249
3286,-0.030263978494623922
3287,-0.030263978494623922
3288,-0.036715591397849634
3289,-0.046393010752688424
3290,-0.06574784946236578
3291,-0.088328494623656
3292,-0.10768333333333358
3293,-0.09478010752688193
3294,-0.06897365591397864
3295,-0.04961881720430128
3296,-0.03994139784946249
3297,-0.030263978494623922
3298,-0.030263978494623922
3299,-0.03994139784946249
3300,-0.052844623655914136
3301,-0.052844623655914136
3302,-0.036715591397849634
3303,-0.027038172043010844
3304,-0.027038172043010844
3305,-0.03348978494623678
3306,-0.046393010752688424
3307,-0.06897365591397864
3308,-0.09478010752688193
3309,-0.10445752688172072
3310,-0.088328494623656
3311,-0.06574784946236578
3312,-0.043167204301075346
3313,-0.030263978494623922
3314,-0.023812365591397988
3315,-0.023812365591397988
3316,-0.030263978494623922
3317,-0.03994139784946249
3318,-0.03348978494623678
3319,-0.020586559139785132
3320,-0.010909139784946342
3321,-0.010909139784946342
3322,-0.017360752688172276
3323,-0.03348978494623678
3324,-0.05607043010752699
3325,-0.07865107526881743
3326,-0.07865107526881743
3327,-0.05607043010752699
3328,-0.030263978494623922
3329,-0.010909139784946342
3330,0.0019940860215053036
3331,0.011671505376343871
3332,0.0019940860215053036
3333,-0.010909139784946342
3334,-0.017360752688172276
3335,-0.00445752688172063
3336,0.0052198924731181595
3337,0.008445698924731015
3338,0.0019940860215053036
3339,-0.007683333333333486
3340,-0.030263978494623922
3341,-0.05607043010752699
3342,-0.07542526881720457
3343,-0.06897365591397864
3344,-0.04961881720430128
3345,-0.027038172043010844
3346,-0.010909139784946342
3347,0.0019940860215053036
3348,0.0019940860215053036
3349,-0.007683333333333486
3350,-0.023812365591397988
3351,-0.023812365591397988
3352,-0.017360752688172276
3353,-0.00445752688172063
3354,-0.00445752688172063
3355,-0.007683333333333486
3356,-0.027038172043010844
3357,-0.05607043010752699
3358,-0.07865107526881743
3359,-0.088328494623656
3360,-0.06897365591397864
3361,-0.043167204301075346
3362,-0.020586559139785132
3363,-0.0012317204301077744
3364,0.011671505376343871
3365,0.011671505376343871
3366,0.008445698924731015
3367,0.0019940860215053036
3368,0.011671505376343871
3369,0.02134892473118266
3370,0.024574731182795517
3371,0.024574731182795517
3372,0.018123118279569805
3373,0.0019940860215053036
3374,-0.017360752688172276
3375,-0.03994139784946249
3376,-0.03994139784946249
3377,-0.023812365591397988
3378,0.0019940860215053036
3379,0.018123118279569805
3380,0.03102634408602123
3381,0.03425215053763431
3382,0.03102634408602123
3383,0.018123118279569805
3384,0.008445698924731015
3385,0.014897311827956727
3386,0.024574731182795517
3387,0.024574731182795517
3388,0.018123118279569805
3389,0.008445698924731015
3390,-0.010909139784946342
3391,-0.03994139784946249
3392,-0.06252204301075293
3393,-0.05607043010752699
3394,-0.036715591397849634
3395,-0.017360752688172276
3396,-0.007683333333333486
3397,-0.0012317204301077744
3398,-0.0012317204301077744
3399,-0.01413494623655942
3400,-0.027038172043010844
3401,-0.03348978494623678
3402,-0.027038172043010844
3403,-0.017360752688172276
3404,-0.023812365591397988
3405,-0.03994139784946249
3406,-0.05607043010752699
3407,-0.07865107526881743
3408,-0.10768333333333358
3409,-0.12058655913978522
3410,-0.10445752688172072
3411,-0.08187688172043028
3412,-0.06574784946236578
3413,-0.04961881720430128
3414,-0.03994139784946249
3415,-0.043167204301075346
3416,-0.05607043010752699
3417,-0.05929623655914007
3418,-0.052844623655914136
3419,-0.036715591397849634
3420,-0.030263978494623922
3421,-0.03994139784946249
3422,-0.052844623655914136
3423,-0.06574784946236578
3424,-0.088328494623656
3425,-0.11090913978494643
3426,-0.11413494623655929
3427,-0.09478010752688193
3428,-0.0721994623655915
3429,-0.052844623655914136
3430,-0.043167204301075346
3431,-0.03348978494623678
3432,-0.036715591397849634
3433,-0.046393010752688424
3434,-0.04961881720430128
3435,-0.03994139784946249
3436,-0.030263978494623922
3437,-0.030263978494623922
3438,-0.03348978494623678
3439,-0.043167204301075346
3440,-0.06252204301075293
3441,-0.088328494623656
3442,-0.10445752688172072
3443,-0.09478010752688193
3444,-0.06897365591397864
3445,-0.04961881720430128
3446,-0.036715591397849634
3447,-0.027038172043010844
3448,-0.027038172043010844
3449,-0.030263978494623922
3450,-0.043167204301075346
3451,-0.046393010752688424
3452,-0.03348978494623678
3453,-0.023812365591397988
3454,-0.023812365591397988
3455,-0.030263978494623922
3456,-0.03994139784946249
3457,-0.06252204301075293
3458,-0.08510268817204314
3459,-0.09478010752688193
3460,-0.07865107526881743
3461,-0.052844623655914136
3462,-0.030263978494623922
3463,-0.017360752688172276
3464,-0.010909139784946342
3465,-0.01413494623655942
3466,-0.023812365591397988
3467,-0.03348978494623678
3468,-0.027038172043010844
3469,-0.01413494623655942
3470,-0.010909139784946342
3471,-0.017360752688172276
3472,-0.027038172043010844
3473,-0.03994139784946249
3474,-0.05929623655914007
3475,-0.08510268817204314
3476,-0.088328494623656
3477,-0.06897365591397864
3478,-0.043167204301075346
3479,-0.027038172043010844
3480,-0.01413494623655942
3481,-0.007683333333333486
3482,-0.007683333333333486
3483,-0.010909139784946342
3484,-0.010909139784946342
3485,0.008445698924731015
3486,0.027800537634408373
3487,0.04070376344086002
3488,0.05038118279569881
3489,0.053606989247311665
3490,0.04715537634408573
3491,0.03747795698924716
3492,0.03747795698924716
3493,0.06005860215053738
3494,0.09231666666666638
3495,0.1245747311827956
3496,0.14715537634408582
3497,0.16651021505376318
3498,0.1729618279569891
3499,0.16651021505376318
3500,0.15038118279569868
3501,0.13747795698924703
3502,0.13425215053763417
3503,0.13102634408602132
3504,0.1084456989247311
3505,0.07941344086021496
3506,0.05683279569892452
3507,0.027800537634408373
3508,-0.00445752688172063
3509,-0.027038172043010844
3510,-0.020586559139785132
3511,-0.0012317204301077744
3512,0.018123118279569805
3513,0.03102634408602123
3514,0.03425215053763431
3515,0.024574731182795517
3516,0.0019940860215053036
3517,-0.020586559139785132
3518,-0.030263978494623922
3519,-0.043167204301075346
3520,-0.06574784946236578
3521,-0.09155430107526907
3522,-0.12058655913978522
3523,-0.14316720430107543
3524,-0.16897365591397873
3525,-0.19800591397849487
3526,-0.20768333333333344
3527,-0.19800591397849487
3528,-0.18832849462365608
3529,-0.18510268817204323
3530,-0.1947801075268818
3531,-0.21090913978494652
3532,-0.23348978494623673
3533,-0.2528446236559141
3534,-0.2625220430107529
3535,-0.25607043010752717
3536,-0.24316720430107552
3537,-0.23994139784946245
3538,-0.24639301075268838
3539,-0.2528446236559141
3540,-0.26574784946236574
3541,-0.28187688172043024
3542,-0.29155430107526903
3543,-0.2786510752688174
3544,-0.24639301075268838
3545,-0.2205865591397851
3546,-0.19800591397849487
3547,-0.1786510752688173
3548,-0.16574784946236587
3549,-0.16574784946236587
3550,-0.1625220430107528
3551,-0.15284462365591422
3552,-0.1302639784946238
3553,-0.11090913978494643
3554,-0.09800591397849479
3555,-0.09155430107526907
3556,-0.088328494623656
3557,-0.09800591397849479
3558,-0.11413494623655929
3559,-0.11413494623655929
3560,-0.08510268817204314
3561,-0.052844623655914136
3562,-0.027038172043010844
3563,-0.00445752688172063
3564,0.011671505376343871
3565,0.018123118279569805
3566,0.014897311827956727
3567,0.011671505376343871
3568,0.018123118279569805
3569,0.03102634408602123
3570,0.03425215053763431
3571,0.03747795698924716
3572,0.03425215053763431
3573,0.02134892473118266
3574,0.0019940860215053036
3575,-0.01413494623655942
3576,-0.007683333333333486
3577,0.011671505376343871
3578,0.03425215053763431
3579,0.053606989247311665
3580,0.06651021505376331
3581,0.07296182795698902
3582,0.07296182795698902
3583,0.06328440860215045
3584,0.06005860215053738
3585,0.06651021505376331
3586,0.07618763440860188
3587,0.07941344086021496
3588,0.07296182795698902
3589,0.06651021505376331
3590,0.05038118279569881
3591,0.027800537634408373
3592,0.014897311827956727
3593,0.024574731182795517
3594,0.04715537634408573
3595,0.06651021505376331
3596,0.08263924731182781
3597,0.08909086021505352
3598,0.09231666666666638
3599,0.08586505376344067
3600,0.07296182795698902
3601,0.07296182795698902
3602,0.08586505376344067
3603,0.09554247311827946
3604,0.08909086021505352
3605,0.08586505376344067
3606,0.07296182795698902
3607,0.053606989247311665
3608,0.03102634408602123
3609,0.024574731182795517
3610,0.043929569892472875
3611,0.06651021505376331
3612,0.07941344086021496
3613,0.09554247311827946
3614,0.10521989247311803
3615,0.10199408602150517
3616,0.09231666666666638
3617,0.08263924731182781
3618,0.08909086021505352
3619,0.09876827956989231
3620,0.10521989247311803
3621,0.10199408602150517
3622,0.09876827956989231
3623,0.07941344086021496
3624,0.053606989247311665
3625,0.03102634408602123
3626,0.03102634408602123
3627,0.053606989247311665
3628,0.07941344086021496
3629,0.09554247311827946
3630,0.1084456989247311
3631,0.11489731182795682
3632,0.11167150537634396
3633,0.09876827956989231
3634,0.09231666666666638
3635,0.10199408602150517
3636,0.12134892473118253
3637,0.1245747311827956
3638,0.11812311827956967
3639,0.10521989247311803
3640,0.08909086021505352
3641,0.06973602150537617
3642,0.05038118279569881
3643,0.06328440860215045
3644,0.08586505376344067
3645,0.11167150537634396
3646,0.12780053763440846
3647,0.1407037634408601
3648,0.14392956989247296
3649,0.13747795698924703
3650,0.12780053763440846
3651,0.13425215053763417
3652,0.15038118279569868
3653,0.1568327956989246
3654,0.16005860215053747
3655,0.1568327956989246
3656,0.15038118279569868
3657,0.13425215053763417
3658,0.11489731182795682
3659,0.1084456989247311
3660,0.1245747311827956
3661,0.14715537634408582
3662,0.16651021505376318
3663,0.17941344086021482
3664,0.19231666666666647
3665,0.19554247311827933
3666,0.1890908602150536
3667,0.17941344086021482
3668,0.1890908602150536
3669,0.20199408602150526
3670,0.20844569892473097
3671,0.20844569892473097
3672,0.20199408602150526
3673,0.1890908602150536
3674,0.16651021505376318
3675,0.14392956989247296
3676,0.1407037634408601
3677,0.16005860215053747
3678,0.18263924731182768
3679,0.19876827956989218
3680,0.20844569892473097
3681,0.21167150537634383
3682,0.20199408602150526
3683,0.1890908602150536
3684,0.18263924731182768
3685,0.19231666666666647
3686,0.20199408602150526
3687,0.19876827956989218
3688,0.18263924731182768
3689,0.1729618279569891
3690,0.15038118279569868
3691,0.12134892473118253
3692,0.10199408602150517
3693,0.10521989247311803
3694,0.1245747311827956
3695,0.13747795698924703
3696,0.14715537634408582
3697,0.15038118279569868
3698,0.14715537634408582
3699,0.13425215053763417
3700,0.12134892473118253
3701,0.11812311827956967
3702,0.11812311827956967
3703,0.1245747311827956
3704,0.12134892473118253
3705,0.1084456989247311
3706,0.09554247311827946
3707,0.07296182795698902
3708,0.04070376344086002
3709,0.027800537634408373
3710,0.03747795698924716
3711,0.05683279569892452
3712,0.07296182795698902
3713,0.07618763440860188
3714,0.07941344086021496
3715,0.07618763440860188
3716,0.06328440860215045
3717,0.05038118279569881
3718,0.05038118279569881
3719,0.06005860215053738
3720,0.05683279569892452
3721,0.053606989247311665
3722,0.043929569892472875
3723,0.02134892473118266
3724,-0.00445752688172063
3725,-0.030263978494623922
3726,-0.030263978494623922
3727,-0.01413494623655942
3728,0.0019940860215053036
3729,0.011671505376343871
3730,0.02134892473118266
3731,0.024574731182795517
3732,0.018123118279569805
3733,-0.0012317204301077744
3734,-0.007683333333333486
3735,-0.00445752688172063
3736,0.0019940860215053036
3737,0.0019940860215053036
3738,-0.007683333333333486
3739,-0.017360752688172276
3740,-0.03994139784946249
3741,-0.06574784946236578
3742,-0.08510268817204314
3743,-0.07865107526881743
3744,-0.05607043010752699
3745,-0.043167204301075346
3746,-0.030263978494623922
3747,-0.023812365591397988
3748,-0.027038172043010844
3749,-0.03994139784946249
3750,-0.052844623655914136
3751,-0.05607043010752699
3752,-0.046393010752688424
3753,-0.03994139784946249
3754,-0.043167204301075346
3755,-0.052844623655914136
3756,-0.06897365591397864
3757,-0.09155430107526907
3758,-0.11736075268817214
3759,-0.12703817204301093
3760,-0.11736075268817214
3761,-0.09478010752688193
3762,-0.07542526881720457
3763,-0.06252204301075293
3764,-0.05607043010752699
3765,-0.05607043010752699
3766,-0.06897365591397864
3767,-0.07865107526881743
3768,-0.07542526881720457
3769,-0.05929623655914007
3770,-0.05607043010752699
3771,-0.05607043010752699
3772,-0.06574784946236578
3773,-0.07865107526881743
3774,-0.09800591397849479
3775,-0.12058655913978522
3776,-0.11736075268817214
3777,-0.09478010752688193
3778,-0.07542526881720457
3779,-0.06252204301075293
3780,-0.04961881720430128
3781,-0.046393010752688424
3782,-0.052844623655914136
3783,-0.05607043010752699
3784,-0.05929623655914007
3785,-0.05607043010752699
3786,-0.04961881720430128
3787,-0.043167204301075346
3788,-0.046393010752688424
3789,-0.05607043010752699
3790,-0.07542526881720457
3791,-0.09800591397849479
3792,-0.11413494623655929
3793,-0.10768333333333358
3794,-0.088328494623656
3795,-0.06574784946236578
3796,-0.052844623655914136
3797,-0.043167204301075346
3798,-0.046393010752688424
3799,-0.05607043010752699
3800,-0.06574784946236578
3801,-0.06252204301075293
3802,-0.04961881720430128
3803,-0.03994139784946249
3804,-0.043167204301075346
3805,-0.046393010752688424
3806,-0.05607043010752699
3807,-0.07865107526881743
3808,-0.10445752688172072
3809,-0.11090913978494643
3810,-0.09478010752688193
3811,-0.0721994623655915
3812,-0.05607043010752699
3813,-0.043167204301075346
3814,-0.03994139784946249
3815,-0.043167204301075346
3816,-0.052844623655914136
3817,-0.06574784946236578
3818,-0.06252204301075293
3819,-0.052844623655914136
3820,-0.043167204301075346
3821,-0.04961881720430128
3822,-0.05607043010752699
3823,-0.06897365591397864
3824,-0.09155430107526907
3825,-0.11090913978494643
3826,-0.11090913978494643
3827,-0.09478010752688193
3828,-0.0721994623655915
3829,-0.05929623655914007
3830,-0.04961881720430128
3831,-0.043167204301075346
3832,-0.04961881720430128
3833,-0.05929623655914007
3834,-0.06252204301075293
3835,-0.05607043010752699
3836,-0.046393010752688424
3837,-0.046393010752688424
3838,-0.046393010752688424
3839,-0.052844623655914136
3840,-0.06897365591397864
3841,-0.088328494623656
3842,-0.10445752688172072
3843,-0.09155430107526907
3844,-0.0721994623655915
3845,-0.052844623655914136
3846,-0.03994139784946249
3847,-0.030263978494623922
3848,-0.03348978494623678
3849,-0.03994139784946249
3850,-0.052844623655914136
3851,-0.05607043010752699
3852,-0.043167204301075346
3853,-0.03348978494623678
3854,-0.036715591397849634
3855,-0.046393010752688424
3856,-0.05607043010752699
3857,-0.0721994623655915
3858,-0.09478010752688193
3859,-0.10123172043010764
3860,-0.08510268817204314
3861,-0.06897365591397864
3862,-0.04961881720430128
3863,-0.03348978494623678
3864,-0.030263978494623922
3865,-0.030263978494623922
3866,-0.03994139784946249
3867,-0.04961881720430128
3868,-0.03994139784946249
3869,-0.030263978494623922
3870,-0.027038172043010844
3871,-0.030263978494623922
3872,-0.03994139784946249
3873,-0.052844623655914136
3874,-0.0721994623655915
3875,-0.09155430107526907
3876,-0.088328494623656
3877,-0.06897365591397864
3878,-0.052844623655914136
3879,-0.03994139784946249
3880,-0.030263978494623922
3881,-0.027038172043010844
3882,-0.030263978494623922
3883,-0.043167204301075346
3884,-0.03994139784946249
3885,-0.030263978494623922
3886,-0.023812365591397988
3887,-0.023812365591397988
3888,-0.027038172043010844
3889,-0.03348978494623678
3890,-0.052844623655914136
3891,-0.0721994623655915
3892,-0.09155430107526907
3893,-0.07865107526881743
3894,-0.05607043010752699
3895,-0.03994139784946249
3896,-0.027038172043010844
3897,-0.01413494623655942
3898,-0.017360752688172276
3899,-0.023812365591397988
3900,-0.027038172043010844
3901,-0.027038172043010844
3902,-0.020586559139785132
3903,-0.007683333333333486
3904,-0.010909139784946342
3905,-0.017360752688172276
3906,-0.03348978494623678
3907,-0.052844623655914136
3908,-0.07542526881720457
3909,-0.08510268817204314
3910,-0.07542526881720457
3911,-0.046393010752688424
3912,-0.03348978494623678
3913,-0.020586559139785132
3914,-0.01413494623655942
3915,-0.017360752688172276
3916,-0.023812365591397988
3917,-0.030263978494623922
3918,-0.023812365591397988
3919,-0.01413494623655942
3920,-0.010909139784946342
3921,-0.01413494623655942
3922,-0.023812365591397988
3923,-0.03994139784946249
3924,-0.05607043010752699
3925,-0.0721994623655915
3926,-0.06897365591397864
3927,-0.052844623655914136
3928,-0.027038172043010844
3929,-0.01413494623655942
3930,-0.0012317204301077744
3931,-0.0012317204301077744
3932,-0.017360752688172276
3933,-0.027038172043010844
3934,-0.027038172043010844
3935,-0.017360752688172276
3936,-0.00445752688172063
3937,-0.00445752688172063
3938,-0.010909139784946342
3939,-0.017360752688172276
3940,-0.030263978494623922
3941,-0.052844623655914136
3942,-0.06897365591397864
3943,-0.05607043010752699
3944,-0.036715591397849634
3945,-0.010909139784946342
3946,0.008445698924731015
3947,0.024574731182795517
3948,0.02134892473118266
3949,0.011671505376343871
3950,0.008445698924731015
3951,0.011671505376343871
3952,0.02134892473118266
3953,0.027800537634408373
3954,0.027800537634408373
3955,0.024574731182795517
3956,0.0052198924731181595
3957,-0.010909139784946342
3958,-0.036715591397849634
3959,-0.046393010752688424
3960,-0.03348978494623678
3961,-0.01413494623655942
3962,-0.0012317204301077744
3963,0.014897311827956727
3964,0.018123118279569805
3965,0.014897311827956727
3966,0.0052198924731181595
3967,-0.0012317204301077744
3968,0.0019940860215053036
3969,0.011671505376343871
3970,0.014897311827956727
3971,0.0052198924731181595
3972,-0.0012317204301077744
3973,-0.017360752688172276
3974,-0.043167204301075346
3975,-0.06897365591397864
3976,-0.06897365591397864
3977,-0.05929623655914007
3978,-0.03994139784946249
3979,-0.027038172043010844
3980,-0.017360752688172276
3981,-0.017360752688172276
3982,-0.023812365591397988
3983,-0.03994139784946249
3984,-0.043167204301075346
3985,-0.03994139784946249
3986,-0.03348978494623678
3987,-0.03348978494623678
3988,-0.03994139784946249
3989,-0.04961881720430128
3990,-0.06897365591397864
3991,-0.09155430107526907
3992,-0.11090913978494643
3993,-0.10123172043010764
3994,-0.07865107526881743
3995,-0.06574784946236578
3996,-0.04961881720430128
3997,-0.036715591397849634
3998,-0.03994139784946249
3999,-0.046393010752688424
4000,-0.05929623655914007
4001,-0.05607043010752699
4002,-0.046393010752688424
4003,-0.03994139784946249
4004,-0.043167204301075346
4005,-0.046393010752688424
4006,-0.05607043010752699
4007,-0.07542526881720457
4008,-0.10123172043010764
4009,-0.11413494623655929
4010,-0.09800591397849479
4011,-0.0721994623655915
4012,-0.05929623655914007
4013,-0.04961881720430128
4014,-0.03994139784946249
4015,-0.03994139784946249
4016,-0.046393010752688424
4017,-0.05607043010752699
4018,-0.046393010752688424
4019,-0.03348978494623678
4020,-0.030263978494623922
4021,-0.03348978494623678
4022,-0.03994139784946249
4023,-0.046393010752688424
4024,-0.06897365591397864
4025,-0.09478010752688193
4026,-0.09478010752688193
4027,-0.07542526881720457
4028,-0.052844623655914136
4029,-0.03994139784946249
4030,-0.023812365591397988
4031,-0.010909139784946342
4032,-0.017360752688172276
4033,-0.027038172043010844
4034,-0.036715591397849634
4035,-0.03348978494623678
4036,-0.023812365591397988
4037,-0.020586559139785132
4038,-0.020586559139785132
4039,-0.027038172043010844
4040,-0.046393010752688424
4041,-0.07542526881720457
4042,-0.09155430107526907
4043,-0.08187688172043028
4044,-0.05929623655914007
4045,-0.03994139784946249
4046,-0.023812365591397988
4047,-0.010909139784946342
4048,-0.00445752688172063
4049,-0.010909139784946342
4050,-0.023812365591397988
4051,-0.023812365591397988
4052,-0.010909139784946342
4053,-0.0012317204301077744
4054,-0.00445752688172063
4055,-0.00445752688172063
4056,-0.020586559139785132
4057,-0.036715591397849634
4058,-0.06574784946236578
4059,-0.0721994623655915
4060,-0.05929623655914007
4061,-0.036715591397849634
4062,-0.020586559139785132
4063,-0.00445752688172063
4064,0.008445698924731015
4065,0.0052198924731181595
4066,0.0019940860215053036
4067,0.0019940860215053036
4068,0.011671505376343871
4069,0.03102634408602123
4070,0.04715537634408573
4071,0.06005860215053738
4072,0.06328440860215045
4073,0.06328440860215045
4074,0.04715537634408573
4075,0.03425215053763431
4076,0.043929569892472875
4077,0.07296182795698902
4078,0.10199408602150517
4079,0.1245747311827956
4080,0.1407037634408601
4081,0.14715537634408582
4082,0.13425215053763417
4083,0.11167150537634396
4084,0.09231666666666638
4085,0.08586505376344067
4086,0.08586505376344067
4087,0.07618763440860188
4088,0.06328440860215045
4089,0.04715537634408573
4090,0.024574731182795517
4091,-0.00445752688172063
4092,-0.023812365591397988
4093,-0.010909139784946342
4094,0.018123118279569805
4095,0.03747795698924716
4096,0.043929569892472875
4097,0.04715537634408573
4098,0.03747795698924716
4099,0.018123118279569805
4100,-0.010909139784946342
4101,-0.03348978494623678
4102,-0.043167204301075346
4103,-0.052844623655914136
4104,-0.06897365591397864
4105,-0.08510268817204314
4106,-0.10123172043010764
4107,-0.1302639784946238
4108,-0.16574784946236587
4109,-0.18832849462365608
4110,-0.18832849462365608
4111,-0.18187688172043037
4112,-0.19155430107526894
4113,-0.1947801075268818
4114,-0.19800591397849487
4115,-0.21090913978494652
4116,-0.22703817204301102
4117,-0.2367155913978496
4118,-0.22381236559139794
4119,-0.20768333333333344
4120,-0.1947801075268818
4121,-0.19155430107526894
4122,-0.1947801075268818
4123,-0.20123172043010773
4124,-0.21736075268817223
4125,-0.2367155913978496
4126,-0.23348978494623673
4127,-0.21090913978494652
4128,-0.18187688172043037
4129,-0.15929623655913994
4130,-0.14316720430107543
4131,-0.1302639784946238
4132,-0.12703817204301093
4133,-0.13348978494623664
4134,-0.12703817204301093
4135,-0.10768333333333358
4136,-0.08510268817204314
4137,-0.07865107526881743
4138,-0.07542526881720457
4139,-0.07542526881720457
4140,-0.08187688172043028
4141,-0.09800591397849479
4142,-0.10445752688172072
4143,-0.08510268817204314
4144,-0.05607043010752699
4145,-0.030263978494623922
4146,-0.007683333333333486
4147,0.011671505376343871
4148,0.02134892473118266
4149,0.02134892473118266
4150,0.014897311827956727
4151,0.02134892473118266
4152,0.03425215053763431
4153,0.04715537634408573
4154,0.04715537634408573
4155,0.04715537634408573
4156,0.04070376344086002
4157,0.02134892473118266
4158,-0.0012317204301077744
4159,-0.007683333333333486
4160,0.014897311827956727
4161,0.03747795698924716
4162,0.05038118279569881
4163,0.06973602150537617
4164,0.07941344086021496
4165,0.07296182795698902
4166,0.06328440860215045
4167,0.05683279569892452
4168,0.06005860215053738
4169,0.07296182795698902
4170,0.08263924731182781
4171,0.07618763440860188
4172,0.06973602150537617
4173,0.06005860215053738
4174,0.03747795698924716
4175,0.018123118279569805
4176,0.018123118279569805
4177,0.03425215053763431
4178,0.06005860215053738
4179,0.07296182795698902
4180,0.08586505376344067
4181,0.09231666666666638
4182,0.08586505376344067
4183,0.07941344086021496
4184,0.07618763440860188
4185,0.07941344086021496
4186,0.08909086021505352
4187,0.08909086021505352
4188,0.08586505376344067
4189,0.07941344086021496
4190,0.06651021505376331
4191,0.043929569892472875
4192,0.027800537634408373
4193,0.04070376344086002
4194,0.06328440860215045
4195,0.08263924731182781
4196,0.09876827956989231
4197,0.11489731182795682
4198,0.11812311827956967
4199,0.1084456989247311
4200,0.09554247311827946
4201,0.09554247311827946
4202,0.1084456989247311
4203,0.11812311827956967
4204,0.11489731182795682
4205,0.11167150537634396
4206,0.10199408602150517
4207,0.08263924731182781
4208,0.05683279569892452
4209,0.04715537634408573
4210,0.06328440860215045
4211,0.08263924731182781
4212,0.10199408602150517
4213,0.11812311827956967
4214,0.1245747311827956
4215,0.12134892473118253
4216,0.11489731182795682
4217,0.1084456989247311
4218,0.11489731182795682
4219,0.13102634408602132
4220,0.13747795698924703
4221,0.13425215053763417
4222,0.12780053763440846
4223,0.11489731182795682
4224,0.08909086021505352
4225,0.06973602150537617
4226,0.07296182795698902
4227,0.08909086021505352
4228,0.1084456989247311
4229,0.1245747311827956
4230,0.14392956989247296
4231,0.15038118279569868
4232,0.15038118279569868
4233,0.13747795698924703
4234,0.13747795698924703
4235,0.14715537634408582
4236,0.16328440860215032
4237,0.16973602150537626
4238,0.16651021505376318
4239,0.16328440860215032
4240,0.15038118279569868
4241,0.12780053763440846
4242,0.1084456989247311
4243,0.11812311827956967
4244,0.14392956989247296
4245,0.16651021505376318
4246,0.18586505376344076
4247,0.20199408602150526
4248,0.20521989247311812
4249,0.19876827956989218
4250,0.19231666666666647
4251,0.19554247311827933
4252,0.21167150537634383
4253,0.22134892473118262
4254,0.22134892473118262
4255,0.21812311827956976
4256,0.20521989247311812
4257,0.18586505376344076
4258,0.1568327956989246
4259,0.15038118279569868
4260,0.16328440860215032
4261,0.17941344086021482
4262,0.19876827956989218
4263,0.21167150537634383
4264,0.22134892473118262
4265,0.2148973118279569
4266,0.20521989247311812
4267,0.19231666666666647
4268,0.19554247311827933
4269,0.20199408602150526
4270,0.20199408602150526
4271,0.19231666666666647
4272,0.18263924731182768
4273,0.16651021505376318
4274,0.13747795698924703
4275,0.10521989247311803
4276,0.10521989247311803
4277,0.12134892473118253
4278,0.13747795698924703
4279,0.15038118279569868
4280,0.16005860215053747
4281,0.1568327956989246
4282,0.14392956989247296
4283,0.12780053763440846
4284,0.12134892473118253
4285,0.1245747311827956
4286,0.13102634408602132
4287,0.12780053763440846
4288,0.11167150537634396
4289,0.09231666666666638
4290,0.07296182795698902
4291,0.04715537634408573
4292,0.027800537634408373
4293,0.03425215053763431
4294,0.05038118279569881
4295,0.06651021505376331
4296,0.07941344086021496
4297,0.08263924731182781
4298,0.08263924731182781
4299,0.06973602150537617
4300,0.05683279569892452
4301,0.053606989247311665
4302,0.06005860215053738
4303,0.06328440860215045
4304,0.06005860215053738
4305,0.05038118279569881
4306,0.03425215053763431
4307,0.011671505376343871
4308,-0.017360752688172276
4309,-0.030263978494623922
4310,-0.017360752688172276
4311,-0.0012317204301077744
4312,0.014897311827956727
4313,0.024574731182795517
4314,0.024574731182795517
4315,0.018123118279569805
4316,0.0052198924731181595
4317,-0.00445752688172063
4318,-0.00445752688172063
4319,0.0019940860215053036
4320,0.0052198924731181595
4321,-0.0012317204301077744
4322,-0.010909139784946342
4323,-0.030263978494623922
4324,-0.05607043010752699
4325,-0.08510268817204314
4326,-0.088328494623656
4327,-0.07542526881720457
4328,-0.05607043010752699
4329,-0.043167204301075346
4330,-0.03348978494623678
4331,-0.03348978494623678
4332,-0.046393010752688424
4333,-0.06252204301075293
4334,-0.06897365591397864
4335,-0.06574784946236578
4336,-0.05607043010752699
4337,-0.05607043010752699
4338,-0.05929623655914007
4339,-0.06897365591397864
4340,-0.08510268817204314
4341,-0.11413494623655929
4342,-0.13348978494623664
4343,-0.12703817204301093
4344,-0.10445752688172072
4345,-0.088328494623656
4346,-0.07542526881720457
4347,-0.06897365591397864
4348,-0.0721994623655915
4349,-0.07865107526881743
4350,-0.09155430107526907
4351,-0.09155430107526907
4352,-0.07865107526881743
4353,-0.0721994623655915
4354,-0.0721994623655915
4355,-0.07542526881720457
4356,-0.08510268817204314
4357,-0.10768333333333358
4358,-0.13348978494623664
4359,-0.14316720430107543
4360,-0.12703817204301093
4361,-0.10445752688172072
4362,-0.088328494623656
4363,-0.07542526881720457
4364,-0.06897365591397864
4365,-0.06897365591397864
4366,-0.07865107526881743
4367,-0.088328494623656
4368,-0.08510268817204314
4369,-0.07542526881720457
4370,-0.06897365591397864
4371,-0.06897365591397864
4372,-0.07542526881720457
4373,-0.088328494623656
4374,-0.11090913978494643
4375,-0.13671559139784972
4376,-0.13348978494623664
4377,-0.11736075268817214
4378,-0.09800591397849479
4379,-0.08187688172043028
4380,-0.06574784946236578
4381,-0.06252204301075293
4382,-0.06574784946236578
4383,-0.07542526881720457
4384,-0.07865107526881743
4385,-0.06897365591397864
4386,-0.05929623655914007
4387,-0.05607043010752699
4388,-0.05607043010752699
4389,-0.06252204301075293
4390,-0.08510268817204314
4391,-0.11090913978494643
4392,-0.1302639784946238
4393,-0.12058655913978522
4394,-0.09478010752688193
4395,-0.07865107526881743
4396,-0.06252204301075293
4397,-0.04961881720430128
4398,-0.046393010752688424
4399,-0.05607043010752699
4400,-0.06897365591397864
4401,-0.06897365591397864
4402,-0.05929623655914007
4403,-0.04961881720430128
4404,-0.04961881720430128
4405,-0.052844623655914136
4406,-0.06252204301075293
4407,-0.08187688172043028
4408,-0.10768333333333358
4409,-0.11736075268817214
4410,-0.10123172043010764
4411,-0.07865107526881743
4412,-0.06252204301075293
4413,-0.046393010752688424
4414,-0.036715591397849634
4415,-0.03994139784946249
4416,-0.04961881720430128
4417,-0.05929623655914007
4418,-0.05607043010752699
4419,-0.043167204301075346
4420,-0.036715591397849634
4421,-0.03994139784946249
4422,-0.043167204301075346
4423,-0.06252204301075293
4424,-0.088328494623656
4425,-0.11413494623655929
4426,-0.11413494623655929
4427,-0.09478010752688193
4428,-0.07542526881720457
4429,-0.05929623655914007
4430,-0.04961881720430128
4431,-0.046393010752688424
4432,-0.04961881720430128
4433,-0.06252204301075293
4434,-0.06252204301075293
4435,-0.052844623655914136
4436,-0.03994139784946249
4437,-0.036715591397849634
4438,-0.043167204301075346
4439,-0.052844623655914136
4440,-0.07542526881720457
4441,-0.10445752688172072
4442,-0.12058655913978522
4443,-0.11090913978494643
4444,-0.09155430107526907
4445,-0.0721994623655915
4446,-0.05607043010752699
4447,-0.043167204301075346
4448,-0.043167204301075346
4449,-0.052844623655914136
4450,-0.06252204301075293
4451,-0.06252204301075293
4452,-0.052844623655914136
4453,-0.03994139784946249
4454,-0.03994139784946249
4455,-0.043167204301075346
4456,-0.05607043010752699
4457,-0.07542526881720457
4458,-0.10123172043010764
4459,-0.11090913978494643
4460,-0.09478010752688193
4461,-0.0721994623655915
4462,-0.05607043010752699
4463,-0.03994139784946249
4464,-0.03348978494623678
4465,-0.03348978494623678
4466,-0.043167204301075346
4467,-0.04961881720430128
4468,-0.043167204301075346
4469,-0.03348978494623678
4470,-0.027038172043010844
4471,-0.030263978494623922
4472,-0.036715591397849634
4473,-0.052844623655914136
4474,-0.07865107526881743
4475,-0.09800591397849479
4476,-0.09478010752688193
4477,-0.07865107526881743
4478,-0.05607043010752699
4479,-0.03994139784946249
4480,-0.027038172043010844
4481,-0.020586559139785132
4482,-0.023812365591397988
4483,-0.030263978494623922
4484,-0.027038172043010844
4485,-0.020586559139785132
4486,-0.010909139784946342
4487,-0.010909139784946342
4488,-0.017360752688172276
4489,-0.023812365591397988
4490,-0.046393010752688424
4491,-0.07542526881720457
4492,-0.09155430107526907
4493,-0.08510268817204314
4494,-0.06252204301075293
4495,-0.03994139784946249
4496,-0.027038172043010844
4497,-0.020586559139785132
4498,-0.017360752688172276
4499,-0.023812365591397988
4500,-0.03348978494623678
4501,-0.030263978494623922
4502,-0.020586559139785132
